# background statistics
# cycle   tau/boxsize    a             conformal H/H0  phi(k=0)       T00(k=0)
      0   1.099623e+01   9.900990e-03   9.938275e+00   0.000000e+00   9.686552e-01
      1   1.123755e+01   1.030095e-02   9.741633e+00   6.375729e-10   9.686552e-01
      2   1.148375e+01   1.071707e-02   9.548950e+00   1.197740e-09   9.686552e-01
      3   1.173491e+01   1.115001e-02   9.360140e+00   1.690167e-09   9.686552e-01
      4   1.199114e+01   1.160043e-02   9.175123e+00   2.122901e-09   9.686552e-01
      5   1.225253e+01   1.206905e-02   8.993820e+00   2.503182e-09   9.686552e-01
      6   1.251920e+01   1.255660e-02   8.816152e+00   2.837513e-09   9.686552e-01
      7   1.279124e+01   1.306385e-02   8.642043e+00   3.131735e-09   9.686552e-01
      8   1.306876e+01   1.359159e-02   8.471420e+00   3.391092e-09   9.686552e-01
      9   1.335187e+01   1.414065e-02   8.304210e+00   3.620291e-09   9.686552e-01
     10   1.364068e+01   1.471190e-02   8.140342e+00   3.823554e-09   9.686552e-01
     11   1.393530e+01   1.530622e-02   7.979747e+00   4.004667e-09   9.686552e-01
     12   1.423586e+01   1.592456e-02   7.822357e+00   4.167027e-09   9.686552e-01
     13   1.454246e+01   1.656787e-02   7.668107e+00   4.313677e-09   9.686552e-01
     14   1.485522e+01   1.723717e-02   7.516931e+00   4.447349e-09   9.686552e-01
     15   1.517428e+01   1.793352e-02   7.368767e+00   4.570491e-09   9.686552e-01
     16   1.549976e+01   1.865800e-02   7.223552e+00   4.685299e-09   9.686551e-01
     17   1.583177e+01   1.941174e-02   7.081227e+00   4.793743e-09   9.686551e-01
     18   1.617046e+01   2.019594e-02   6.941732e+00   4.897593e-09   9.686551e-01
     19   1.651596e+01   2.101182e-02   6.805010e+00   4.998441e-09   9.686551e-01
     20   1.686840e+01   2.186065e-02   6.671003e+00   5.097718e-09   9.686551e-01
     21   1.722791e+01   2.274379e-02   6.539657e+00   5.196715e-09   9.686551e-01
     22   1.759465e+01   2.366260e-02   6.410918e+00   5.296595e-09   9.686551e-01
     23   1.796875e+01   2.461853e-02   6.284733e+00   5.398414e-09   9.686551e-01
     24   1.835037e+01   2.561308e-02   6.161049e+00   5.503130e-09   9.686551e-01
     25   1.873964e+01   2.664781e-02   6.039817e+00   5.611614e-09   9.686551e-01
     26   1.913673e+01   2.772435e-02   5.920987e+00   5.724664e-09   9.686550e-01
     27   1.954179e+01   2.884437e-02   5.804510e+00   5.843011e-09   9.686550e-01
     28   1.995497e+01   3.000965e-02   5.690338e+00   5.967334e-09   9.686550e-01
     29   2.037645e+01   3.122200e-02   5.578426e+00   6.098259e-09   9.686550e-01
     30   2.080638e+01   3.248333e-02   5.468728e+00   6.236374e-09   9.686550e-01
     31   2.124493e+01   3.379562e-02   5.361199e+00   6.382232e-09   9.686550e-01
     32   2.169229e+01   3.516092e-02   5.255796e+00   6.536357e-09   9.686550e-01
     33   2.214861e+01   3.658139e-02   5.152476e+00   6.699245e-09   9.686549e-01
     34   2.261408e+01   3.805924e-02   5.051197e+00   6.871378e-09   9.686549e-01
     35   2.308889e+01   3.959679e-02   4.951918e+00   7.053222e-09   9.686549e-01
     36   2.357321e+01   4.119647e-02   4.854600e+00   7.245231e-09   9.686549e-01
     37   2.406725e+01   4.286077e-02   4.759202e+00   7.447848e-09   9.686549e-01
     38   2.457119e+01   4.459230e-02   4.665688e+00   7.661517e-09   9.686548e-01
     39   2.508522e+01   4.639379e-02   4.574018e+00   7.886683e-09   9.686548e-01
     40   2.560956e+01   4.826807e-02   4.484157e+00   8.123789e-09   9.686548e-01
     41   2.614441e+01   5.021806e-02   4.396068e+00   8.373286e-09   9.686548e-01
     42   2.668998e+01   5.224683e-02   4.309716e+00   8.635642e-09   9.686547e-01
     43   2.724647e+01   5.435757e-02   4.225066e+00   8.911329e-09   9.686547e-01
     44   2.781412e+01   5.655357e-02   4.142085e+00   9.200822e-09   9.686547e-01
     45   2.839313e+01   5.883830e-02   4.060738e+00   9.504624e-09   9.686547e-01
     46   2.898375e+01   6.121533e-02   3.980995e+00   9.823256e-09   9.686546e-01
     47   2.958620e+01   6.368839e-02   3.902822e+00   1.015724e-08   9.686546e-01
     48   3.020071e+01   6.626137e-02   3.826189e+00   1.050711e-08   9.686546e-01
     49   3.082753e+01   6.893829e-02   3.751065e+00   1.087344e-08   9.686545e-01
     50   3.146691e+01   7.172336e-02   3.677420e+00   1.125686e-08   9.686545e-01
     51   3.211909e+01   7.462095e-02   3.605225e+00   1.165801e-08   9.686545e-01
     52   3.278433e+01   7.763560e-02   3.534451e+00   1.207756e-08   9.686544e-01
     53   3.346289e+01   8.077204e-02   3.465071e+00   1.251617e-08   9.686544e-01
     54   3.415504e+01   8.403519e-02   3.397055e+00   1.297456e-08   9.686543e-01
     55   3.486104e+01   8.743018e-02   3.330378e+00   1.345345e-08   9.686543e-01
     56   3.558118e+01   9.096232e-02   3.265013e+00   1.395369e-08   9.686543e-01
     57   3.631574e+01   9.463716e-02   3.200934e+00   1.447609e-08   9.686542e-01
     58   3.706500e+01   9.846047e-02   3.138116e+00   1.502151e-08   9.686542e-01
     59   3.781500e+01   1.023633e-01   3.077660e+00   1.557558e-08   9.686541e-01
     60   3.856500e+01   1.063419e-01   3.019493e+00   1.613790e-08   9.686541e-01
     61   3.931500e+01   1.103963e-01   2.963486e+00   1.670882e-08   9.686540e-01
     62   4.006500e+01   1.145265e-01   2.909521e+00   1.728862e-08   9.686540e-01
     63   4.081500e+01   1.187325e-01   2.857489e+00   1.787760e-08   9.686539e-01
     64   4.156500e+01   1.230143e-01   2.807287e+00   1.847601e-08   9.686538e-01
     65   4.231500e+01   1.273719e-01   2.758821e+00   1.908407e-08   9.686538e-01
     66   4.306500e+01   1.318053e-01   2.712003e+00   1.970210e-08   9.686537e-01
     67   4.381500e+01   1.363145e-01   2.666748e+00   2.033029e-08   9.686537e-01
     68   4.456500e+01   1.408995e-01   2.622982e+00   2.096889e-08   9.686536e-01
     69   4.531500e+01   1.455603e-01   2.580631e+00   2.161818e-08   9.686536e-01
     70   4.606500e+01   1.502969e-01   2.539628e+00   2.227840e-08   9.686535e-01
     71   4.681500e+01   1.551094e-01   2.499909e+00   2.294981e-08   9.686534e-01
     72   4.756500e+01   1.599976e-01   2.461416e+00   2.363268e-08   9.686534e-01
     73   4.831500e+01   1.649617e-01   2.424092e+00   2.432729e-08   9.686533e-01
     74   4.906500e+01   1.700016e-01   2.387885e+00   2.503388e-08   9.686532e-01
     75   4.981500e+01   1.751174e-01   2.352746e+00   2.575281e-08   9.686532e-01
     76   5.056500e+01   1.803089e-01   2.318628e+00   2.648438e-08   9.686531e-01
     77   5.131500e+01   1.855763e-01   2.285487e+00   2.722890e-08   9.686530e-01
     78   5.206500e+01   1.909196e-01   2.253283e+00   2.798674e-08   9.686530e-01
     79   5.281500e+01   1.963387e-01   2.221976e+00   2.875830e-08   9.686529e-01
     80   5.356500e+01   2.018336e-01   2.191529e+00   2.954400e-08   9.686528e-01
     81   5.431500e+01   2.074044e-01   2.161908e+00   3.034441e-08   9.686527e-01
     82   5.506500e+01   2.130511e-01   2.133079e+00   3.115995e-08   9.686527e-01
     83   5.581500e+01   2.187737e-01   2.105011e+00   3.199118e-08   9.686526e-01
     84   5.656500e+01   2.245721e-01   2.077675e+00   3.283854e-08   9.686525e-01
     85   5.731500e+01   2.304464e-01   2.051042e+00   3.370258e-08   9.686524e-01
     86   5.806500e+01   2.363967e-01   2.025086e+00   3.458385e-08   9.686523e-01
     87   5.881500e+01   2.424228e-01   1.999781e+00   3.548280e-08   9.686522e-01
     88   5.956500e+01   2.485249e-01   1.975104e+00   3.640004e-08   9.686521e-01
     89   6.031500e+01   2.547029e-01   1.951031e+00   3.733588e-08   9.686521e-01
     90   6.106500e+01   2.609568e-01   1.927540e+00   3.829065e-08   9.686520e-01
     91   6.181500e+01   2.672867e-01   1.904612e+00   3.926480e-08   9.686519e-01
     92   6.256500e+01   2.736926e-01   1.882226e+00   4.025839e-08   9.686518e-01
     93   6.331500e+01   2.801744e-01   1.860363e+00   4.127189e-08   9.686517e-01
     94   6.406500e+01   2.867322e-01   1.839006e+00   4.230565e-08   9.686516e-01
     95   6.481500e+01   2.933661e-01   1.818137e+00   4.335996e-08   9.686515e-01
     96   6.556500e+01   3.000760e-01   1.797739e+00   4.443554e-08   9.686514e-01
     97   6.631500e+01   3.068619e-01   1.777798e+00   4.553291e-08   9.686513e-01
     98   6.706500e+01   3.137239e-01   1.758298e+00   4.665242e-08   9.686512e-01
     99   6.781500e+01   3.206620e-01   1.739225e+00   4.779430e-08   9.686511e-01
    100   6.856500e+01   3.276761e-01   1.720566e+00   4.895976e-08   9.686509e-01
    101   6.931500e+01   3.347664e-01   1.702306e+00   5.014905e-08   9.686508e-01
    102   7.006500e+01   3.419329e-01   1.684435e+00   5.136176e-08   9.686507e-01
    103   7.081500e+01   3.491755e-01   1.666939e+00   5.259757e-08   9.686506e-01
    104   7.156500e+01   3.564943e-01   1.649807e+00   5.385509e-08   9.686505e-01
    105   7.231500e+01   3.638893e-01   1.633028e+00   5.513323e-08   9.686504e-01
    106   7.306500e+01   3.713606e-01   1.616592e+00   5.643181e-08   9.686502e-01
    107   7.381500e+01   3.789082e-01   1.600489e+00   5.775132e-08   9.686501e-01
    108   7.456500e+01   3.865321e-01   1.584708e+00   5.909214e-08   9.686500e-01
    109   7.531500e+01   3.942323e-01   1.569240e+00   6.045416e-08   9.686499e-01
    110   7.606500e+01   4.020090e-01   1.554077e+00   6.183735e-08   9.686497e-01
    111   7.681500e+01   4.098620e-01   1.539209e+00   6.324146e-08   9.686496e-01
    112   7.756500e+01   4.177915e-01   1.524629e+00   6.466749e-08   9.686495e-01
    113   7.831500e+01   4.257975e-01   1.510329e+00   6.611670e-08   9.686493e-01
    114   7.906500e+01   4.338800e-01   1.496300e+00   6.758811e-08   9.686492e-01
    115   7.981500e+01   4.420391e-01   1.482535e+00   6.908311e-08   9.686491e-01
    116   8.056500e+01   4.502748e-01   1.469028e+00   7.060182e-08   9.686489e-01
    117   8.131500e+01   4.585872e-01   1.455771e+00   7.214603e-08   9.686488e-01
    118   8.206500e+01   4.669763e-01   1.442758e+00   7.371591e-08   9.686487e-01
    119   8.281500e+01   4.754422e-01   1.429982e+00   7.531124e-08   9.686485e-01
    120   8.356500e+01   4.839849e-01   1.417437e+00   7.693251e-08   9.686484e-01
    121   8.431500e+01   4.926046e-01   1.405118e+00   7.858097e-08   9.686482e-01
    122   8.506500e+01   5.013011e-01   1.393019e+00   8.025541e-08   9.686481e-01
    123   8.581500e+01   5.100747e-01   1.381134e+00   8.195580e-08   9.686479e-01
    124   8.656500e+01   5.189254e-01   1.369457e+00   8.368190e-08   9.686477e-01
    125   8.731500e+01   5.278532e-01   1.357985e+00   8.543163e-08   9.686476e-01
    126   8.806500e+01   5.368582e-01   1.346711e+00   8.720374e-08   9.686474e-01
    127   8.881500e+01   5.459405e-01   1.335631e+00   8.899578e-08   9.686473e-01
    128   8.956500e+01   5.551002e-01   1.324741e+00   9.080496e-08   9.686471e-01
    129   9.031500e+01   5.643374e-01   1.314035e+00   9.263195e-08   9.686470e-01
    130   9.106500e+01   5.736521e-01   1.303511e+00   9.447782e-08   9.686468e-01
    131   9.181500e+01   5.830444e-01   1.293162e+00   9.634128e-08   9.686467e-01
    132   9.256500e+01   5.925144e-01   1.282987e+00   9.822064e-08   9.686465e-01
    133   9.331500e+01   6.020623e-01   1.272980e+00   1.001139e-07   9.686464e-01
    134   9.406500e+01   6.116881e-01   1.263137e+00   1.020156e-07   9.686462e-01
    135   9.481500e+01   6.213918e-01   1.253456e+00   1.039262e-07   9.686461e-01
    136   9.556500e+01   6.311738e-01   1.243933e+00   1.058456e-07   9.686459e-01
    137   9.631500e+01   6.410339e-01   1.234564e+00   1.077733e-07   9.686458e-01
    138   9.706500e+01   6.509724e-01   1.225346e+00   1.097104e-07   9.686456e-01
    139   9.781500e+01   6.609894e-01   1.216276e+00   1.116566e-07   9.686455e-01
    140   9.856500e+01   6.710850e-01   1.207351e+00   1.136111e-07   9.686453e-01
    141   9.931500e+01   6.812594e-01   1.198567e+00   1.155751e-07   9.686452e-01
    142   1.000650e+02   6.915126e-01   1.189922e+00   1.175465e-07   9.686450e-01
    143   1.008150e+02   7.018448e-01   1.181413e+00   1.195249e-07   9.686448e-01
    144   1.015650e+02   7.122562e-01   1.173038e+00   1.215110e-07   9.686447e-01
    145   1.023150e+02   7.227469e-01   1.164793e+00   1.235016e-07   9.686445e-01
    146   1.030650e+02   7.333171e-01   1.156676e+00   1.254955e-07   9.686444e-01
    147   1.038150e+02   7.439669e-01   1.148685e+00   1.274921e-07   9.686442e-01
    148   1.045650e+02   7.546965e-01   1.140818e+00   1.294935e-07   9.686441e-01
    149   1.053150e+02   7.655061e-01   1.133071e+00   1.314988e-07   9.686439e-01
    150   1.060650e+02   7.763959e-01   1.125443e+00   1.335087e-07   9.686438e-01
    151   1.068150e+02   7.873661e-01   1.117931e+00   1.355244e-07   9.686436e-01
    152   1.075650e+02   7.984168e-01   1.110535e+00   1.375466e-07   9.686435e-01
    153   1.083150e+02   8.095482e-01   1.103250e+00   1.395770e-07   9.686433e-01
    154   1.090650e+02   8.207606e-01   1.096076e+00   1.416154e-07   9.686431e-01
    155   1.098150e+02   8.320542e-01   1.089010e+00   1.436631e-07   9.686430e-01
    156   1.105650e+02   8.434293e-01   1.082051e+00   1.457206e-07   9.686428e-01
    157   1.113150e+02   8.548860e-01   1.075196e+00   1.477887e-07   9.686426e-01
    158   1.120650e+02   8.664245e-01   1.068445e+00   1.498687e-07   9.686424e-01
    159   1.128150e+02   8.780452e-01   1.061795e+00   1.519633e-07   9.686422e-01
    160   1.135650e+02   8.897484e-01   1.055245e+00   1.540756e-07   9.686420e-01
    161   1.143150e+02   9.015341e-01   1.048793e+00   1.562079e-07   9.686418e-01
    162   1.150650e+02   9.134029e-01   1.042437e+00   1.583635e-07   9.686416e-01
    163   1.158150e+02   9.253548e-01   1.036177e+00   1.605425e-07   9.686414e-01
    164   1.165650e+02   9.373903e-01   1.030010e+00   1.627466e-07   9.686411e-01
    165   1.173150e+02   9.495097e-01   1.023935e+00   1.649758e-07   9.686409e-01
    166   1.180650e+02   9.617132e-01   1.017951e+00   1.672338e-07   9.686407e-01
    167   1.188150e+02   9.740011e-01   1.012056e+00   1.695237e-07   9.686404e-01
    168   1.195650e+02   9.863739e-01   1.006249e+00   1.718467e-07   9.686401e-01
    169   1.203150e+02   9.988319e-01   1.000530e+00   1.742041e-07   9.686399e-01
    170   1.210650e+02   1.011375e+00   9.948960e-01   1.765899e-07   9.686396e-01
    171   1.218150e+02   1.024005e+00   9.893467e-01   1.790034e-07   9.686393e-01
    172   1.225650e+02   1.036720e+00   9.838808e-01   1.814431e-07   9.686390e-01
    173   1.233150e+02   1.049523e+00   9.784972e-01   1.839049e-07   9.686388e-01
    174   1.240650e+02   1.062412e+00   9.731947e-01   1.863870e-07   9.686385e-01
    175   1.248150e+02   1.075389e+00   9.679725e-01   1.888880e-07   9.686382e-01
    176   1.255650e+02   1.088454e+00   9.628295e-01   1.914085e-07   9.686380e-01
    177   1.263150e+02   1.101607e+00   9.577646e-01   1.939480e-07   9.686377e-01
    178   1.270650e+02   1.114850e+00   9.527771e-01   1.965114e-07   9.686374e-01
    179   1.278150e+02   1.128181e+00   9.478659e-01   1.991011e-07   9.686371e-01
    180   1.285650e+02   1.141602e+00   9.430302e-01   2.017187e-07   9.686368e-01
    181   1.293150e+02   1.155114e+00   9.382692e-01   2.043687e-07   9.686365e-01
    182   1.300650e+02   1.168716e+00   9.335820e-01   2.070568e-07   9.686362e-01
    183   1.308150e+02   1.182410e+00   9.289678e-01   2.097857e-07   9.686359e-01
    184   1.315650e+02   1.196196e+00   9.244258e-01   2.125538e-07   9.686356e-01
    185   1.323150e+02   1.210075e+00   9.199554e-01   2.153540e-07   9.686353e-01
    186   1.330650e+02   1.224046e+00   9.155558e-01   2.181779e-07   9.686350e-01
    187   1.338150e+02   1.238111e+00   9.112263e-01   2.210117e-07   9.686348e-01
    188   1.345650e+02   1.252271e+00   9.069663e-01   2.238503e-07   9.686345e-01
    189   1.353150e+02   1.266525e+00   9.027751e-01   2.266967e-07   9.686343e-01
    190   1.360650e+02   1.280875e+00   8.986521e-01   2.295440e-07   9.686341e-01
    191   1.368150e+02   1.295322e+00   8.945967e-01   2.323958e-07   9.686338e-01
    192   1.375650e+02   1.309865e+00   8.906083e-01   2.352489e-07   9.686336e-01
    193   1.383150e+02   1.324507e+00   8.866864e-01   2.381067e-07   9.686334e-01
    194   1.390650e+02   1.339247e+00   8.828304e-01   2.409736e-07   9.686332e-01
    195   1.398150e+02   1.354086e+00   8.790400e-01   2.438463e-07   9.686330e-01
    196   1.405650e+02   1.369025e+00   8.753145e-01   2.467158e-07   9.686328e-01
    197   1.413150e+02   1.384065e+00   8.716535e-01   2.495742e-07   9.686327e-01
    198   1.420650e+02   1.399207e+00   8.680565e-01   2.524116e-07   9.686325e-01
    199   1.428150e+02   1.414451e+00   8.645233e-01   2.552239e-07   9.686324e-01
    200   1.435650e+02   1.429799e+00   8.610532e-01   2.580049e-07   9.686323e-01
    201   1.443150e+02   1.445251e+00   8.576461e-01   2.607520e-07   9.686323e-01
    202   1.450650e+02   1.460808e+00   8.543014e-01   2.634668e-07   9.686322e-01
    203   1.458150e+02   1.476472e+00   8.510189e-01   2.661491e-07   9.686322e-01
    204   1.465650e+02   1.492243e+00   8.477983e-01   2.688026e-07   9.686321e-01
    205   1.473150e+02   1.508122e+00   8.446391e-01   2.714287e-07   9.686321e-01
    206   1.480650e+02   1.524111e+00   8.415413e-01   2.740303e-07   9.686320e-01
    207   1.488150e+02   1.540210e+00   8.385043e-01   2.766115e-07   9.686319e-01
    208   1.495650e+02   1.556421e+00   8.355282e-01   2.791716e-07   9.686319e-01
    209   1.503150e+02   1.572744e+00   8.326124e-01   2.817142e-07   9.686318e-01
    210   1.510650e+02   1.589181e+00   8.297570e-01   2.842430e-07   9.686317e-01
    211   1.518150e+02   1.605733e+00   8.269617e-01   2.867555e-07   9.686316e-01
    212   1.525650e+02   1.622401e+00   8.242262e-01   2.892485e-07   9.686315e-01
    213   1.533150e+02   1.639187e+00   8.215504e-01   2.917227e-07   9.686314e-01
    214   1.540650e+02   1.656092e+00   8.189343e-01   2.941786e-07   9.686313e-01
    215   1.548150e+02   1.673117e+00   8.163776e-01   2.966171e-07   9.686312e-01
    216   1.555650e+02   1.690263e+00   8.138802e-01   2.990378e-07   9.686311e-01
    217   1.563150e+02   1.707533e+00   8.114421e-01   3.014399e-07   9.686309e-01
    218   1.570650e+02   1.724927e+00   8.090631e-01   3.038200e-07   9.686308e-01
    219   1.578150e+02   1.742447e+00   8.067432e-01   3.061726e-07   9.686307e-01
    220   1.585650e+02   1.760094e+00   8.044824e-01   3.084966e-07   9.686306e-01
    221   1.593150e+02   1.777871e+00   8.022806e-01   3.107918e-07   9.686305e-01
    222   1.600650e+02   1.795778e+00   8.001378e-01   3.130602e-07   9.686305e-01
    223   1.608150e+02   1.813818e+00   7.980540e-01   3.153058e-07   9.686304e-01
    224   1.615650e+02   1.831992e+00   7.960292e-01   3.175326e-07   9.686303e-01
    225   1.623150e+02   1.850302e+00   7.940635e-01   3.197383e-07   9.686301e-01
    226   1.630650e+02   1.868750e+00   7.921569e-01   3.219212e-07   9.686300e-01
    227   1.638150e+02   1.887337e+00   7.903095e-01   3.240770e-07   9.686299e-01
    228   1.645650e+02   1.906066e+00   7.885214e-01   3.262059e-07   9.686299e-01
    229   1.653150e+02   1.924938e+00   7.867927e-01   3.283034e-07   9.686298e-01
    230   1.660650e+02   1.943956e+00   7.851234e-01   3.303740e-07   9.686297e-01
    231   1.668150e+02   1.963121e+00   7.835138e-01   3.324140e-07   9.686296e-01
    232   1.675650e+02   1.982436e+00   7.819640e-01   3.344259e-07   9.686295e-01
    233   1.683150e+02   2.001903e+00   7.804741e-01   3.364039e-07   9.686295e-01
    234   1.690650e+02   2.021525e+00   7.790443e-01   3.383523e-07   9.686294e-01
    235   1.698150e+02   2.041303e+00   7.776749e-01   3.402671e-07   9.686293e-01
    236   1.705650e+02   2.061240e+00   7.763661e-01   3.421458e-07   9.686293e-01
    237   1.713150e+02   2.081338e+00   7.751181e-01   3.439872e-07   9.686292e-01
    238   1.720650e+02   2.101601e+00   7.739312e-01   3.457944e-07   9.686291e-01
