# power spectrum of delta
# redshift z=19.797355
# k              Pk             sigma(k)       sigma(Pk)      count
  5.562276e-03   3.159855e-07   1.043960e-03   4.775770e-08   26
  1.223212e-02   1.016321e-05   2.109551e-03   7.925298e-07   224
  1.972885e-02   3.662005e-05   2.153060e-03   1.520778e-06   596
  2.702247e-02   9.257299e-05   2.075657e-03   3.018923e-06   1088
  3.462668e-02   1.445661e-04   2.244189e-03   3.329214e-06   1952
  4.230772e-02   2.254689e-04   2.142904e-03   4.341612e-06   2780
  5.004312e-02   3.112671e-04   2.281079e-03   5.079251e-06   4112
  5.765572e-02   4.380695e-04   2.118182e-03   6.332148e-06   5060
  6.520378e-02   5.816991e-04   2.228225e-03   7.175049e-06   6808
  7.290095e-02   7.202977e-04   2.208442e-03   7.919558e-06   8456
  8.055190e-02   8.712539e-04   2.200045e-03   8.780633e-06   10244
  8.816864e-02   9.734426e-04   2.214152e-03   8.648796e-06   12296
  9.576395e-02   1.080011e-03   2.193113e-03   9.143496e-06   14408
  1.033733e-01   1.185139e-03   2.205152e-03   8.950918e-06   16916
  1.110951e-01   1.331852e-03   2.257402e-03   9.509679e-06   19976
  1.187549e-01   1.535421e-03   2.180988e-03   1.038978e-05   22028
  1.263330e-01   1.732093e-03   2.206596e-03   1.088272e-05   25240
  1.340087e-01   1.911135e-03   2.232177e-03   1.138460e-05   28784
  1.416697e-01   2.064745e-03   2.193755e-03   1.157205e-05   31628
  1.492984e-01   2.140316e-03   2.213206e-03   1.134582e-05   35426
  1.569573e-01   2.236650e-03   2.209355e-03   1.137296e-05   39152
  1.645984e-01   2.350082e-03   2.194191e-03   1.140052e-05   42836
  1.722273e-01   2.542730e-03   2.199276e-03   1.169902e-05   46976
  1.798694e-01   2.700449e-03   2.207348e-03   1.201607e-05   51364
  1.875354e-01   2.914184e-03   2.214571e-03   1.238194e-05   56048
  1.952019e-01   3.145980e-03   2.204526e-03   1.293079e-05   60488
  2.028259e-01   3.252273e-03   2.190146e-03   1.282454e-05   64844
  2.104373e-01   3.355853e-03   2.200161e-03   1.267635e-05   70064
  2.180931e-01   3.468890e-03   2.217730e-03   1.266282e-05   75848
  2.257751e-01   3.551424e-03   2.215327e-03   1.242401e-05   81212
  2.333962e-01   3.695314e-03   2.183836e-03   1.267589e-05   85496
  2.410250e-01   3.864005e-03   2.222691e-03   1.265902e-05   92708
  2.487230e-01   4.032133e-03   2.226629e-03   1.285950e-05   98920
  2.564066e-01   4.227909e-03   2.212160e-03   1.303952e-05   104504
  2.640689e-01   4.392611e-03   2.213777e-03   1.324623e-05   110852
  2.716904e-01   4.482952e-03   2.192788e-03   1.316824e-05   116192
  2.793027e-01   4.603021e-03   2.205898e-03   1.317265e-05   123608
  2.869594e-01   4.689776e-03   2.216650e-03   1.298280e-05   131156
  2.946343e-01   4.832114e-03   2.215916e-03   1.302281e-05   138218
  3.022953e-01   4.975222e-03   2.208863e-03   1.304385e-05   145036
  3.099375e-01   5.100516e-03   2.203423e-03   1.309464e-05   152240
  3.175711e-01   5.290566e-03   2.198398e-03   1.323143e-05   159608
  3.252355e-01   5.419387e-03   2.220715e-03   1.322751e-05   168980
  3.329134e-01   5.557376e-03   2.210565e-03   1.321613e-05   176144
  3.405436e-01   5.640048e-03   2.193657e-03   1.328393e-05   182924
  3.481936e-01   5.768352e-03   2.220287e-03   1.313059e-05   193640
  3.558650e-01   5.824089e-03   2.204921e-03   1.294260e-05   200912
  3.635019e-01   6.011681e-03   2.201155e-03   1.318427e-05   209092
  3.711489e-01   6.130019e-03   2.214636e-03   1.310978e-05   219224
  3.788142e-01   6.255046e-03   2.210801e-03   1.316869e-05   228128
  3.864746e-01   6.365945e-03   2.210310e-03   1.316333e-05   237284
  3.941242e-01   6.546473e-03   2.209189e-03   1.320932e-05   246416
  4.017588e-01   6.676320e-03   2.203276e-03   1.322154e-05   255380
  4.094034e-01   6.742132e-03   2.213254e-03   1.305717e-05   266552
  4.170502e-01   6.828438e-03   2.202551e-03   1.307836e-05   275336
  4.246906e-01   6.975344e-03   2.210141e-03   1.308087e-05   286308
  4.323388e-01   7.055148e-03   2.210517e-03   1.295305e-05   296616
  4.399877e-01   7.214008e-03   2.209537e-03   1.300519e-05   307424
  4.476267e-01   7.326376e-03   2.198654e-03   1.303017e-05   316886
  4.552855e-01   7.440878e-03   2.220819e-03   1.293170e-05   330992
  4.629479e-01   7.507548e-03   2.202345e-03   1.288882e-05   339356
  4.706029e-01   7.621921e-03   2.215300e-03   1.284341e-05   352880
  4.782739e-01   7.717301e-03   2.210057e-03   1.290118e-05   363728
  4.859229e-01   7.873754e-03   2.202307e-03   1.292673e-05   374060
  4.935638e-01   7.927872e-03   2.207118e-03   1.276164e-05   386512
  5.012245e-01   8.049291e-03   2.215497e-03   1.269685e-05   400232
  5.088771e-01   8.147036e-03   2.199539e-03   1.271424e-05   409772
  5.165343e-01   8.281448e-03   2.218458e-03   1.270589e-05   425600
  5.241851e-01   8.391263e-03   2.198923e-03   1.272469e-05   434180
  5.318173e-01   8.465615e-03   2.209123e-03   1.259412e-05   448928
  5.394783e-01   8.545914e-03   2.215217e-03   1.254567e-05   463376
  5.471305e-01   8.657557e-03   2.203051e-03   1.256175e-05   473988
  5.547721e-01   8.753681e-03   2.210463e-03   1.248236e-05   488688
  5.624395e-01   8.837660e-03   2.219624e-03   1.249379e-05   504392
  5.701025e-01   8.928559e-03   2.206335e-03   1.241853e-05   515396
  5.777517e-01   9.042381e-03   2.210437e-03   1.244306e-05   530168
  5.853975e-01   9.135897e-03   2.206581e-03   1.238290e-05   543236
  5.930412e-01   9.243974e-03   2.207646e-03   1.237291e-05   558122
  6.006862e-01   9.356352e-03   2.204899e-03   1.234439e-05   572168
  6.083393e-01   9.419760e-03   2.211087e-03   1.231689e-05   588508
  6.159982e-01   9.530650e-03   2.208664e-03   1.226448e-05   602672
  6.236571e-01   9.608205e-03   2.211488e-03   1.223757e-05   618536
  6.313083e-01   9.730186e-03   2.203967e-03   1.225200e-05   631724
  6.389557e-01   9.791130e-03   2.208934e-03   1.221430e-05   648560
  6.466077e-01   9.890530e-03   2.207165e-03   1.217893e-05   663548
  6.542470e-01   9.971001e-03   2.202131e-03   1.208290e-05   677768
  6.618945e-01   1.002186e-02   2.211575e-03   1.205484e-05   696656
  6.695527e-01   1.012455e-02   2.209426e-03   1.201042e-05   711908
  6.772148e-01   1.022029e-02   2.215427e-03   1.200342e-05   730072
  6.848691e-01   1.031996e-02   2.205615e-03   1.197244e-05   743324
  6.925093e-01   1.037624e-02   2.207153e-03   1.193141e-05   760616
  7.001593e-01   1.047037e-02   2.210626e-03   1.191543e-05   778808
  7.078084e-01   1.056642e-02   2.207053e-03   1.186151e-05   794396
  7.154662e-01   1.065037e-02   2.217111e-03   1.180656e-05   815192
  7.231298e-01   1.071800e-02   2.210110e-03   1.179133e-05   830480
  7.307755e-01   1.079142e-02   2.204622e-03   1.176589e-05   846196
  7.384148e-01   1.089088e-02   2.207076e-03   1.170132e-05   864776
  7.460668e-01   1.100309e-02   2.211589e-03   1.171165e-05   884870
  7.537283e-01   1.104786e-02   2.210636e-03   1.164838e-05   903152
  7.613786e-01   1.112225e-02   2.204038e-03   1.161519e-05   918872
  7.690306e-01   1.118685e-02   2.212180e-03   1.153408e-05   940652
  7.766914e-01   1.128196e-02   2.209988e-03   1.152387e-05   958448
  7.843504e-01   1.135378e-02   2.210696e-03   1.150349e-05   978128
  7.920018e-01   1.145078e-02   2.204061e-03   1.147403e-05   994316
  7.996451e-01   1.147428e-02   2.207597e-03   1.140565e-05   1014760
  8.072960e-01   1.156309e-02   2.209566e-03   1.139793e-05   1035164
  8.149584e-01   1.164352e-02   2.213751e-03   1.136470e-05   1057016
  8.226162e-01   1.169997e-02   2.206993e-03   1.127989e-05   1073624
  8.302634e-01   1.179731e-02   2.208117e-03   1.128557e-05   1094012
  8.379088e-01   1.186266e-02   2.207149e-03   1.124176e-05   1113368
  8.455580e-01   1.192400e-02   2.211152e-03   1.120182e-05   1136144
  8.532114e-01   1.202310e-02   2.207317e-03   1.120514e-05   1155132
  8.608573e-01   1.204988e-02   2.207522e-03   1.112093e-05   1175568
  8.684990e-01   1.216384e-02   2.206507e-03   1.115658e-05   1195748
  8.761487e-01   1.217244e-02   2.211794e-03   1.106316e-05   1220096
  8.838106e-01   1.228686e-02   2.212460e-03   1.104902e-05   1242224
  8.914641e-01   1.232971e-02   2.206267e-03   1.099543e-05   1260398
  8.991116e-01   1.239685e-02   2.208948e-03   1.093989e-05   1283432
  9.067628e-01   1.248680e-02   2.209081e-03   1.096192e-05   1305752
  9.144179e-01   1.253950e-02   2.208820e-03   1.089928e-05   1328316
  9.220826e-01   1.259699e-02   2.214394e-03   1.083268e-05   1353720
  9.297322e-01   1.267909e-02   2.201843e-03   1.086043e-05   1368092
  9.373668e-01   1.274453e-02   2.205696e-03   1.081365e-05   1393376
  9.450220e-01   1.280289e-02   2.212594e-03   1.076795e-05   1420832
  9.526841e-01   1.285115e-02   2.210067e-03   1.069928e-05   1442180
  9.603378e-01   1.289568e-02   2.208198e-03   1.065018e-05   1463768
  9.679846e-01   1.297657e-02   2.207671e-03   1.064853e-05   1486664
  9.756309e-01   1.301713e-02   2.206966e-03   1.060993e-05   1510196
  9.832828e-01   1.310667e-02   2.210434e-03   1.061233e-05   1536208
  9.909391e-01   1.314992e-02   2.210766e-03   1.055797e-05   1559924
  9.985927e-01   1.321781e-02   2.209863e-03   1.052389e-05   1583384
  1.006249e+00   1.326911e-02   2.211859e-03   1.046016e-05   1609496
  1.013910e+00   1.333534e-02   2.212038e-03   1.042377e-05   1634444
  1.021555e+00   1.337695e-02   2.202147e-03   1.042378e-05   1651568
  1.029200e+00   1.345986e-02   2.213049e-03   1.040895e-05   1684436
  1.036849e+00   1.350972e-02   2.204630e-03   1.037938e-05   1703480
  1.044498e+00   1.357831e-02   2.211173e-03   1.033082e-05   1734394
  1.052156e+00   1.360329e-02   2.209035e-03   1.026856e-05   1758140
  1.059809e+00   1.367618e-02   2.208877e-03   1.023993e-05   1783544
  1.067457e+00   1.371764e-02   2.205876e-03   1.022304e-05   1807352
  1.075107e+00   1.379407e-02   2.208895e-03   1.021335e-05   1836092
  1.082757e+00   1.380606e-02   2.206400e-03   1.014036e-05   1859960
  1.090410e+00   1.388743e-02   2.210650e-03   1.011483e-05   1889732
  1.098065e+00   1.395340e-02   2.208505e-03   1.009201e-05   1914624
  1.105722e+00   1.398227e-02   2.210791e-03   1.004786e-05   1943448
  1.113380e+00   1.404124e-02   2.209940e-03   1.004611e-05   1969220
  1.121033e+00   1.410362e-02   2.209005e-03   1.000674e-05   1995152
  1.128683e+00   1.415415e-02   2.208263e-03   9.970572e-06   2021984
  1.136333e+00   1.418141e-02   2.208451e-03   9.920543e-06   2049668
  1.143983e+00   1.425246e-02   2.209470e-03   9.907500e-06   2077904
  1.151630e+00   1.430988e-02   2.206622e-03   9.887661e-06   2103068
  1.159278e+00   1.433215e-02   2.210222e-03   9.830441e-06   2134640
  1.166933e+00   1.438758e-02   2.210475e-03   9.816304e-06   2163208
  1.174583e+00   1.442483e-02   2.207028e-03   9.773973e-06   2188292
  1.182227e+00   1.448980e-02   2.207356e-03   9.762968e-06   2217008
  1.189874e+00   1.452266e-02   2.208629e-03   9.703509e-06   2247770
  1.197535e+00   1.457601e-02   2.213172e-03   9.673925e-06   2282276
  1.205192e+00   1.462432e-02   2.206259e-03   9.660497e-06   2303912
  1.212840e+00   1.465299e-02   2.208831e-03   9.603417e-06   2335916
  1.220489e+00   1.471444e-02   2.206180e-03   9.588630e-06   2363176
  1.228148e+00   1.473775e-02   2.213556e-03   9.542738e-06   2400944
  1.235804e+00   1.478240e-02   2.205683e-03   9.526096e-06   2421908
  1.243452e+00   1.483634e-02   2.209504e-03   9.480509e-06   2455640
  1.251104e+00   1.486960e-02   2.208193e-03   9.469308e-06   2484800
  1.258754e+00   1.490772e-02   2.207519e-03   9.445255e-06   2515124
  1.266410e+00   1.495306e-02   2.211431e-03   9.405151e-06   2549432
  1.274064e+00   1.499142e-02   2.208530e-03   9.366619e-06   2576060
  1.281711e+00   1.504485e-02   2.207676e-03   9.353680e-06   2606456
  1.289363e+00   1.507709e-02   2.210918e-03   9.310434e-06   2641840
  1.297014e+00   1.511233e-02   2.206897e-03   9.280634e-06   2668244
  1.304658e+00   1.514556e-02   2.207416e-03   9.251924e-06   2700008
  1.312307e+00   1.519090e-02   2.209861e-03   9.226554e-06   2734880
  1.319967e+00   1.523662e-02   2.213493e-03   9.176026e-06   2772188
  1.327630e+00   1.528612e-02   2.210718e-03   9.184259e-06   2800736
  1.335277e+00   1.531807e-02   2.205189e-03   9.148474e-06   2825678
  1.342919e+00   1.534460e-02   2.207175e-03   9.106049e-06   2861240
  1.350573e+00   1.540240e-02   2.211232e-03   9.086710e-06   2899984
  1.358232e+00   1.544359e-02   2.209367e-03   9.054563e-06   2930828
  1.365886e+00   1.544677e-02   2.208352e-03   9.011516e-06   2962088
  1.373535e+00   1.547701e-02   2.207667e-03   8.991266e-06   2993732
  1.381189e+00   1.551402e-02   2.211166e-03   8.966875e-06   3032672
  1.388841e+00   1.555652e-02   2.205510e-03   8.935702e-06   3058832
  1.396486e+00   1.560008e-02   2.207592e-03   8.902997e-06   3094748
  1.404140e+00   1.562970e-02   2.211731e-03   8.891629e-06   3134344
  1.411794e+00   1.566869e-02   2.207461e-03   8.860596e-06   3162776
  1.419444e+00   1.570161e-02   2.208733e-03   8.835422e-06   3198980
  1.427097e+00   1.571785e-02   2.209944e-03   8.783633e-06   3234800
  1.434753e+00   1.576119e-02   2.211620e-03   8.762894e-06   3271580
  1.442405e+00   1.577958e-02   2.207566e-03   8.725527e-06   3300872
  1.450057e+00   1.582589e-02   2.210300e-03   8.711196e-06   3340760
  1.457709e+00   1.585400e-02   2.207960e-03   8.680301e-06   3372188
  1.465355e+00   1.590044e-02   2.207229e-03   8.664280e-06   3406048
  1.473008e+00   1.592589e-02   2.211664e-03   8.619953e-06   3448904
  1.480663e+00   1.594215e-02   2.208394e-03   8.596919e-06   3480140
  1.488314e+00   1.599083e-02   2.209178e-03   8.577151e-06   3517682
  1.495965e+00   1.599813e-02   2.207649e-03   8.531559e-06   3551516
  1.503615e+00   1.604604e-02   2.208617e-03   8.523064e-06   3589904
  1.511267e+00   1.606572e-02   2.208676e-03   8.494304e-06   3627008
  1.518917e+00   1.609466e-02   2.206873e-03   8.470441e-06   3660524
  1.526570e+00   1.615344e-02   2.210869e-03   8.453017e-06   3703704
  1.534223e+00   1.614739e-02   2.207856e-03   8.410857e-06   3736104
  1.541876e+00   1.618660e-02   2.209275e-03   8.390754e-06   3776228
  1.549530e+00   1.621644e-02   2.209272e-03   8.366225e-06   3813464
  1.557186e+00   1.624009e-02   2.210592e-03   8.332114e-06   3853172
  1.564839e+00   1.625343e-02   2.208092e-03   8.304564e-06   3886496
  1.572487e+00   1.629030e-02   2.207804e-03   8.289305e-06   3923960
  1.580139e+00   1.631092e-02   2.210237e-03   8.255743e-06   3966260
  1.587793e+00   1.633516e-02   2.209874e-03   8.228805e-06   4003688
  1.595446e+00   1.633569e-02   2.209987e-03   8.192607e-06   4042912
  1.603095e+00   1.636176e-02   2.206294e-03   8.171823e-06   4075220
  1.610741e+00   1.641874e-02   2.209011e-03   8.163612e-06   4118480
  1.618394e+00   1.643072e-02   2.211243e-03   8.125163e-06   4161764
  1.626045e+00   1.646180e-02   2.207348e-03   8.113406e-06   4194560
  1.633693e+00   1.647508e-02   2.208246e-03   8.077941e-06   4236578
  1.641350e+00   1.651141e-02   2.212256e-03   8.059546e-06   4284596
  1.649006e+00   1.653630e-02   2.207446e-03   8.040960e-06   4315064
  1.656658e+00   1.654763e-02   2.210189e-03   7.999409e-06   4360600
  1.664310e+00   1.656482e-02   2.206940e-03   7.970197e-06   4395332
  1.671962e+00   1.658739e-02   2.209665e-03   7.947793e-06   4441112
  1.679613e+00   1.661282e-02   2.207474e-03   7.939913e-06   4476740
  1.687262e+00   1.663685e-02   2.207982e-03   7.902849e-06   4519160
  1.694918e+00   1.663949e-02   2.211016e-03   7.860857e-06   4566920
  1.702576e+00   1.666500e-02   2.209627e-03   7.848881e-06   4604972
  1.710224e+00   1.669738e-02   2.205608e-03   7.841219e-06   4637064
  1.717869e+00   1.671355e-02   2.208808e-03   7.814389e-06   4684692
  1.725524e+00   1.673177e-02   2.211160e-03   7.780651e-06   4732496
  1.733175e+00   1.673182e-02   2.205697e-03   7.759057e-06   4762928
  1.740824e+00   1.675249e-02   2.211007e-03   7.723898e-06   4815404
  1.748476e+00   1.677841e-02   2.207529e-03   7.718981e-06   4850192
  1.756131e+00   1.679300e-02   2.212755e-03   7.681512e-06   4904960
  1.763788e+00   1.682372e-02   2.208434e-03   7.665683e-06   4938308
  1.771438e+00   1.681869e-02   2.208281e-03   7.621963e-06   4980512
  1.779084e+00   1.684917e-02   2.206998e-03   7.613187e-06   5020324
  1.786734e+00   1.686341e-02   2.210288e-03   7.599472e-06   5072402
  1.794390e+00   1.688493e-02   2.208825e-03   7.569599e-06   5113616
  1.802046e+00   1.690826e-02   2.210475e-03   7.545172e-06   5160428
  1.809695e+00   1.691737e-02   2.205737e-03   7.529530e-06   5192696
  1.817346e+00   1.692702e-02   2.211144e-03   7.496257e-06   5250032
  1.825001e+00   1.693208e-02   2.207842e-03   7.469978e-06   5286860
  1.832653e+00   1.695242e-02   2.209440e-03   7.451101e-06   5335032
  1.840306e+00   1.697376e-02   2.208257e-03   7.435409e-06   5375916
  1.847954e+00   1.699427e-02   2.207767e-03   7.411461e-06   5419520
  1.855608e+00   1.699059e-02   2.210462e-03   7.377969e-06   5471840
  1.863263e+00   1.700581e-02   2.208856e-03   7.355250e-06   5512124
  1.870915e+00   1.703105e-02   2.209978e-03   7.335789e-06   5559320
  1.878567e+00   1.704677e-02   2.208816e-03   7.314410e-06   5602376
  1.886216e+00   1.703476e-02   2.207758e-03   7.288801e-06   5645972
  1.893864e+00   1.707336e-02   2.207764e-03   7.282581e-06   5691464
  1.901521e+00   1.707957e-02   2.213610e-03   7.245663e-06   5751940
  1.909174e+00   1.708515e-02   2.206370e-03   7.227217e-06   5779640
  1.916820e+00   1.709940e-02   2.208684e-03   7.198074e-06   5833112
  1.924473e+00   1.710366e-02   2.209422e-03   7.182832e-06   5881820
  1.932127e+00   1.710748e-02   2.210129e-03   7.149432e-06   5930594
  1.939778e+00   1.714135e-02   2.206690e-03   7.142942e-06   5969048
  1.947429e+00   1.715339e-02   2.210436e-03   7.114468e-06   6026996
  1.955082e+00   1.713686e-02   2.206856e-03   7.086020e-06   6064520
  1.962733e+00   1.714864e-02   2.209698e-03   7.063098e-06   6119956
  1.970386e+00   1.718257e-02   2.208269e-03   7.057816e-06   6163784
  1.978038e+00   1.717731e-02   2.208965e-03   7.027359e-06   6213608
  1.985691e+00   1.719422e-02   2.208704e-03   7.014513e-06   6260972
  1.993344e+00   1.718670e-02   2.209143e-03   6.981509e-06   6310088
  2.000995e+00   1.719643e-02   2.207841e-03   6.951856e-06   6354632
  2.008650e+00   1.721376e-02   2.211878e-03   6.944027e-06   6415412
  2.016302e+00   1.723827e-02   2.205749e-03   6.934446e-06   6445832
  2.023950e+00   1.725090e-02   2.210122e-03   6.905094e-06   6506764
  2.031603e+00   1.724667e-02   2.209208e-03   6.885168e-06   6553376
  2.039258e+00   1.723781e-02   2.211246e-03   6.852796e-06   6609272
  2.046910e+00   1.724408e-02   2.207060e-03   6.840237e-06   6646364
  2.054556e+00   1.726812e-02   2.207949e-03   6.826446e-06   6698240
  2.062206e+00   1.727446e-02   2.209844e-03   6.810142e-06   6753932
  2.069862e+00   1.727662e-02   2.210633e-03   6.771609e-06   6807776
  2.077511e+00   1.728086e-02   2.205758e-03   6.766141e-06   6843272
  2.085161e+00   1.727446e-02   2.211140e-03   6.727800e-06   6910030
  2.092818e+00   1.730679e-02   2.209571e-03   6.719975e-06   6956720
  2.100467e+00   1.729031e-02   2.206436e-03   6.704806e-06   6998480
  2.108123e+00   1.729662e-02   2.213125e-03   6.671102e-06   7070948
  2.115780e+00   1.729956e-02   2.207141e-03   6.663941e-06   7102712
  2.123425e+00   1.731284e-02   2.206406e-03   6.643465e-06   7151300
  2.131074e+00   1.732075e-02   2.209288e-03   6.617860e-06   7213184
  2.138728e+00   1.731873e-02   2.209405e-03   6.594652e-06   7265656
  2.146384e+00   1.732377e-02   2.210436e-03   6.578841e-06   7319972
  2.154037e+00   1.734655e-02   2.208200e-03   6.567508e-06   7364432
  2.161684e+00   1.733529e-02   2.206742e-03   6.543981e-06   7412408
  2.169332e+00   1.733032e-02   2.208868e-03   6.526682e-06   7472252
  2.176984e+00   1.734490e-02   2.209189e-03   6.501185e-06   7525592
  2.184639e+00   1.734309e-02   2.210622e-03   6.478113e-06   7582220
