# background statistics
# cycle   tau/boxsize    a             conformal H/H0  phi(k=0)       T00(k=0)
      0   6.427028e+00   9.900990e-03   5.696651e+00   0.000000e+00   3.120460e-01
      1   6.577388e+00   1.030088e-02   5.581859e+00   2.178463e-10   3.120460e-01
      2   6.730840e+00   1.071692e-02   5.469494e+00   4.175026e-10   3.120460e-01
      3   6.887445e+00   1.114977e-02   5.359500e+00   6.058435e-10   3.120460e-01
      4   7.047264e+00   1.160010e-02   5.251820e+00   7.842429e-10   3.120460e-01
      5   7.210360e+00   1.206863e-02   5.146399e+00   9.539541e-10   3.120460e-01
      6   7.376797e+00   1.255609e-02   5.043186e+00   1.116124e-09   3.120460e-01
      7   7.546640e+00   1.306324e-02   4.942128e+00   1.271806e-09   3.120460e-01
      8   7.719956e+00   1.359088e-02   4.843177e+00   1.421965e-09   3.120460e-01
      9   7.896813e+00   1.413984e-02   4.746283e+00   1.567489e-09   3.120460e-01
     10   8.077280e+00   1.471097e-02   4.651400e+00   1.709198e-09   3.120460e-01
     11   8.261429e+00   1.530518e-02   4.558482e+00   1.847847e-09   3.120460e-01
     12   8.449332e+00   1.592339e-02   4.467484e+00   1.984137e-09   3.120460e-01
     13   8.641061e+00   1.656658e-02   4.378363e+00   2.118717e-09   3.120460e-01
     14   8.836694e+00   1.723576e-02   4.291078e+00   2.252191e-09   3.120460e-01
     15   9.036306e+00   1.793197e-02   4.205587e+00   2.385123e-09   3.120460e-01
     16   9.239975e+00   1.865631e-02   4.121850e+00   2.518043e-09   3.120460e-01
     17   9.447782e+00   1.940990e-02   4.039829e+00   2.651447e-09   3.120460e-01
     18   9.659809e+00   2.019395e-02   3.959485e+00   2.785805e-09   3.120460e-01
     19   9.876137e+00   2.100967e-02   3.880783e+00   2.921561e-09   3.120460e-01
     20   1.009685e+01   2.185835e-02   3.803685e+00   3.059138e-09   3.120460e-01
     21   1.032204e+01   2.274131e-02   3.728158e+00   3.198943e-09   3.120460e-01
     22   1.055179e+01   2.365994e-02   3.654166e+00   3.341365e-09   3.120460e-01
     23   1.078620e+01   2.461569e-02   3.581678e+00   3.486778e-09   3.120460e-01
     24   1.102535e+01   2.561005e-02   3.510660e+00   3.635549e-09   3.120460e-01
     25   1.126933e+01   2.664458e-02   3.441081e+00   3.788033e-09   3.120460e-01
     26   1.151825e+01   2.772090e-02   3.372911e+00   3.944579e-09   3.120460e-01
     27   1.177220e+01   2.884071e-02   3.306118e+00   4.105529e-09   3.120460e-01
     28   1.203128e+01   3.000576e-02   3.240675e+00   4.271224e-09   3.120460e-01
     29   1.229559e+01   3.121788e-02   3.176552e+00   4.442002e-09   3.120460e-01
     30   1.256524e+01   3.247897e-02   3.113721e+00   4.618198e-09   3.120460e-01
     31   1.284033e+01   3.379101e-02   3.052156e+00   4.800150e-09   3.120460e-01
     32   1.312097e+01   3.515605e-02   2.991830e+00   4.988199e-09   3.120460e-01
     33   1.340726e+01   3.657624e-02   2.932717e+00   5.182687e-09   3.120459e-01
     34   1.369933e+01   3.805381e-02   2.874791e+00   5.383962e-09   3.120459e-01
     35   1.399728e+01   3.959107e-02   2.818029e+00   5.592375e-09   3.120459e-01
     36   1.430123e+01   4.119044e-02   2.762406e+00   5.808289e-09   3.120459e-01
     37   1.461131e+01   4.285443e-02   2.707898e+00   6.032069e-09   3.120459e-01
     38   1.492762e+01   4.458564e-02   2.654484e+00   6.264092e-09   3.120459e-01
     39   1.525030e+01   4.638680e-02   2.602139e+00   6.504746e-09   3.120459e-01
     40   1.557948e+01   4.826072e-02   2.550843e+00   6.754427e-09   3.120459e-01
     41   1.591527e+01   5.021035e-02   2.500574e+00   7.013546e-09   3.120459e-01
     42   1.625781e+01   5.223875e-02   2.451312e+00   7.282524e-09   3.120459e-01
     43   1.660723e+01   5.434910e-02   2.403035e+00   7.561798e-09   3.120459e-01
     44   1.696368e+01   5.654471e-02   2.355725e+00   7.851816e-09   3.120459e-01
     45   1.732728e+01   5.882903e-02   2.309363e+00   8.153045e-09   3.120459e-01
     46   1.769818e+01   6.120563e-02   2.263928e+00   8.465965e-09   3.120459e-01
     47   1.807653e+01   6.367826e-02   2.219403e+00   8.791069e-09   3.120459e-01
     48   1.846247e+01   6.625080e-02   2.175770e+00   9.128863e-09   3.120458e-01
     49   1.885615e+01   6.892726e-02   2.133012e+00   9.479875e-09   3.120458e-01
     50   1.925771e+01   7.171187e-02   2.091112e+00   9.844644e-09   3.120458e-01
     51   1.966733e+01   7.460899e-02   2.050053e+00   1.022374e-08   3.120458e-01
     52   2.008515e+01   7.762316e-02   2.009819e+00   1.061776e-08   3.120458e-01
     53   2.051133e+01   8.075912e-02   1.970394e+00   1.102729e-08   3.120458e-01
     54   2.094604e+01   8.402179e-02   1.931764e+00   1.145297e-08   3.120458e-01
     55   2.138944e+01   8.741629e-02   1.893913e+00   1.189548e-08   3.120458e-01
     56   2.184171e+01   9.094795e-02   1.856829e+00   1.235546e-08   3.120458e-01
     57   2.230300e+01   9.462232e-02   1.820495e+00   1.283363e-08   3.120457e-01
     58   2.277351e+01   9.844517e-02   1.784901e+00   1.333070e-08   3.120457e-01
     59   2.325339e+01   1.024225e-01   1.750031e+00   1.384746e-08   3.120457e-01
     60   2.374284e+01   1.065606e-01   1.715875e+00   1.438469e-08   3.120457e-01
     61   2.424203e+01   1.108658e-01   1.682421e+00   1.494316e-08   3.120457e-01
     62   2.475115e+01   1.153451e-01   1.649657e+00   1.552377e-08   3.120457e-01
     63   2.527038e+01   1.200054e-01   1.617571e+00   1.612735e-08   3.120457e-01
     64   2.579991e+01   1.248541e-01   1.586155e+00   1.675482e-08   3.120456e-01
     65   2.633992e+01   1.298988e-01   1.555398e+00   1.740715e-08   3.120456e-01
     66   2.689062e+01   1.351474e-01   1.525292e+00   1.808535e-08   3.120456e-01
     67   2.745218e+01   1.406081e-01   1.495826e+00   1.879041e-08   3.120456e-01
     68   2.802481e+01   1.462897e-01   1.466995e+00   1.952330e-08   3.120456e-01
     69   2.860869e+01   1.522009e-01   1.438790e+00   2.028508e-08   3.120455e-01
     70   2.920402e+01   1.583512e-01   1.411205e+00   2.107682e-08   3.120455e-01
     71   2.981098e+01   1.647502e-01   1.384234e+00   2.189965e-08   3.120455e-01
     72   3.042977e+01   1.714080e-01   1.357872e+00   2.275473e-08   3.120455e-01
     73   3.106057e+01   1.783352e-01   1.332116e+00   2.364316e-08   3.120455e-01
# background statistics
# cycle   tau/boxsize    a             conformal H/H0  phi(k=0)       T00(k=0)
      0   6.427028e+00   9.900990e-03   5.696651e+00   0.000000e+00   3.120460e-01
      1   6.577388e+00   1.030088e-02   5.581859e+00   2.178463e-10   3.120460e-01
      2   6.730840e+00   1.071692e-02   5.469494e+00   4.175026e-10   3.120460e-01
      3   6.887445e+00   1.114977e-02   5.359500e+00   6.058435e-10   3.120460e-01
      4   7.047264e+00   1.160010e-02   5.251820e+00   7.842429e-10   3.120460e-01
      5   7.210360e+00   1.206863e-02   5.146399e+00   9.539541e-10   3.120460e-01
      6   7.376797e+00   1.255609e-02   5.043186e+00   1.116124e-09   3.120460e-01
      7   7.546640e+00   1.306324e-02   4.942128e+00   1.271806e-09   3.120460e-01
      8   7.719956e+00   1.359088e-02   4.843177e+00   1.421965e-09   3.120460e-01
      9   7.896813e+00   1.413984e-02   4.746283e+00   1.567489e-09   3.120460e-01
     10   8.077280e+00   1.471097e-02   4.651400e+00   1.709198e-09   3.120460e-01
# background statistics
# cycle   tau/boxsize    a             conformal H/H0  phi(k=0)       T00(k=0)
      0   1.442543e+00   9.990010e-04   2.010497e+01   0.000000e+00   3.120455e-01
      1   1.485147e+00   1.039270e-03   1.962464e+01   4.077880e-09   3.120455e-01
# background statistics
# cycle   tau/boxsize    a             conformal H/H0  phi(k=0)       T00(k=0)
      0   6.427028e-01   9.900990e-03   5.696651e+00   0.000000e+00   3.120460e-01
# background statistics
# cycle   tau/boxsize    a             conformal H/H0  phi(k=0)       T00(k=0)
      0   6.427028e+00   9.900990e-03   5.696651e+00   0.000000e+00   3.120460e-01
      1   6.577388e+00   1.030088e-02   5.581859e+00   2.178463e-10   3.120460e-01
# background statistics
# cycle   tau/boxsize    a             conformal H/H0  phi(k=0)       T00(k=0)
      0   1.799568e+01   9.900990e-03   5.696651e+00   0.000000e+00   3.120461e-01
      1   1.841669e+01   1.030088e-02   5.581859e+00   9.781307e-11   3.120461e-01
      2   1.884635e+01   1.071692e-02   5.469494e+00   1.887235e-10   3.120461e-01
      3   1.928485e+01   1.114977e-02   5.359500e+00   2.746640e-10   3.120461e-01
      4   1.973234e+01   1.160010e-02   5.251820e+00   3.562527e-10   3.120461e-01
      5   2.018901e+01   1.206863e-02   5.146399e+00   4.340553e-10   3.120461e-01
      6   2.065503e+01   1.255609e-02   5.043186e+00   5.085905e-10   3.120461e-01
      7   2.113059e+01   1.306324e-02   4.942128e+00   5.803341e-10   3.120461e-01
      8   2.161588e+01   1.359088e-02   4.843177e+00   6.497239e-10   3.120461e-01
      9   2.211108e+01   1.413984e-02   4.746283e+00   7.171628e-10   3.120461e-01
     10   2.261638e+01   1.471097e-02   4.651400e+00   7.830231e-10   3.120461e-01
     11   2.313200e+01   1.530518e-02   4.558482e+00   8.476490e-10   3.120461e-01
     12   2.365813e+01   1.592339e-02   4.467484e+00   9.113597e-10   3.120460e-01
     13   2.419497e+01   1.656658e-02   4.378363e+00   9.744523e-10   3.120460e-01
     14   2.474274e+01   1.723576e-02   4.291078e+00   1.037204e-09   3.120460e-01
     15   2.530166e+01   1.793197e-02   4.205587e+00   1.099874e-09   3.120460e-01
     16   2.587193e+01   1.865631e-02   4.121850e+00   1.162707e-09   3.120460e-01
     17   2.645379e+01   1.940990e-02   4.039829e+00   1.225933e-09   3.120460e-01
     18   2.704746e+01   2.019395e-02   3.959485e+00   1.289769e-09   3.120460e-01
     19   2.765318e+01   2.100967e-02   3.880783e+00   1.354423e-09   3.120460e-01
     20   2.827119e+01   2.185835e-02   3.803685e+00   1.420094e-09   3.120460e-01
     21   2.890172e+01   2.274131e-02   3.728158e+00   1.486973e-09   3.120460e-01
     22   2.954502e+01   2.365994e-02   3.654166e+00   1.555243e-09   3.120460e-01
     23   3.020135e+01   2.461569e-02   3.581678e+00   1.625083e-09   3.120460e-01
     24   3.087097e+01   2.561005e-02   3.510660e+00   1.696668e-09   3.120460e-01
     25   3.155413e+01   2.664458e-02   3.441081e+00   1.770168e-09   3.120460e-01
     26   3.225110e+01   2.772090e-02   3.372911e+00   1.845752e-09   3.120460e-01
     27   3.296216e+01   2.884071e-02   3.306118e+00   1.923586e-09   3.120460e-01
     28   3.368758e+01   3.000576e-02   3.240675e+00   2.003835e-09   3.120460e-01
     29   3.442766e+01   3.121788e-02   3.176552e+00   2.086664e-09   3.120460e-01
     30   3.517766e+01   3.247051e-02   3.114130e+00   2.171434e-09   3.120460e-01
     31   3.592766e+01   3.374757e-02   3.054136e+00   2.256659e-09   3.120460e-01
     32   3.667766e+01   3.504904e-02   2.996430e+00   2.342458e-09   3.120460e-01
     33   3.742766e+01   3.637493e-02   2.940883e+00   2.428931e-09   3.120460e-01
     34   3.817766e+01   3.772525e-02   2.887375e+00   2.516167e-09   3.120460e-01
     35   3.892766e+01   3.909999e-02   2.835795e+00   2.604239e-09   3.120460e-01
     36   3.967766e+01   4.049916e-02   2.786040e+00   2.693213e-09   3.120460e-01
     37   4.042766e+01   4.192275e-02   2.738015e+00   2.783145e-09   3.120460e-01
     38   4.117766e+01   4.337078e-02   2.691630e+00   2.874084e-09   3.120460e-01
     39   4.192766e+01   4.484323e-02   2.646803e+00   2.966075e-09   3.120460e-01
     40   4.267766e+01   4.634011e-02   2.603457e+00   3.059155e-09   3.120460e-01
     41   4.342766e+01   4.786143e-02   2.561518e+00   3.153357e-09   3.120460e-01
     42   4.417766e+01   4.940718e-02   2.520920e+00   3.248708e-09   3.120460e-01
     43   4.492766e+01   5.097737e-02   2.481598e+00   3.345239e-09   3.120460e-01
     44   4.567766e+01   5.257201e-02   2.443494e+00   3.442969e-09   3.120460e-01
     45   4.642766e+01   5.419108e-02   2.406552e+00   3.541917e-09   3.120460e-01
     46   4.717766e+01   5.583460e-02   2.370719e+00   3.642098e-09   3.120460e-01
     47   4.792766e+01   5.750258e-02   2.335946e+00   3.743525e-09   3.120460e-01
     48   4.867766e+01   5.919500e-02   2.302187e+00   3.846214e-09   3.120460e-01
     49   4.942766e+01   6.091189e-02   2.269398e+00   3.950184e-09   3.120460e-01
     50   5.017766e+01   6.265323e-02   2.237539e+00   4.055451e-09   3.120460e-01
     51   5.092766e+01   6.441904e-02   2.206569e+00   4.162023e-09   3.120460e-01
     52   5.167766e+01   6.620932e-02   2.176454e+00   4.269911e-09   3.120460e-01
     53   5.242766e+01   6.802407e-02   2.147157e+00   4.379124e-09   3.120460e-01
     54   5.317766e+01   6.986331e-02   2.118646e+00   4.489667e-09   3.120460e-01
     55   5.392766e+01   7.172703e-02   2.090891e+00   4.601546e-09   3.120459e-01
     56   5.467766e+01   7.361524e-02   2.063861e+00   4.714768e-09   3.120459e-01
     57   5.542766e+01   7.552795e-02   2.037529e+00   4.829342e-09   3.120459e-01
     58   5.617766e+01   7.746516e-02   2.011869e+00   4.945268e-09   3.120459e-01
     59   5.692766e+01   7.942689e-02   1.986855e+00   5.062556e-09   3.120459e-01
     60   5.767766e+01   8.141314e-02   1.962463e+00   5.181212e-09   3.120459e-01
     61   5.842766e+01   8.342392e-02   1.938671e+00   5.301243e-09   3.120459e-01
     62   5.917766e+01   8.545923e-02   1.915458e+00   5.422649e-09   3.120459e-01
     63   5.992766e+01   8.751909e-02   1.892802e+00   5.545437e-09   3.120459e-01
     64   6.067766e+01   8.960351e-02   1.870685e+00   5.669610e-09   3.120459e-01
     65   6.142766e+01   9.171249e-02   1.849087e+00   5.795171e-09   3.120459e-01
     66   6.217766e+01   9.384606e-02   1.827991e+00   5.922124e-09   3.120459e-01
     67   6.292766e+01   9.600421e-02   1.807380e+00   6.050471e-09   3.120459e-01
     68   6.367766e+01   9.818697e-02   1.787238e+00   6.180222e-09   3.120459e-01
     69   6.442766e+01   1.003943e-01   1.767550e+00   6.311380e-09   3.120459e-01
     70   6.517766e+01   1.026263e-01   1.748300e+00   6.443954e-09   3.120459e-01
     71   6.592766e+01   1.048830e-01   1.729475e+00   6.577946e-09   3.120459e-01
     72   6.667766e+01   1.071643e-01   1.711061e+00   6.713363e-09   3.120459e-01
     73   6.742766e+01   1.094703e-01   1.693045e+00   6.850215e-09   3.120459e-01
     74   6.817766e+01   1.118010e-01   1.675416e+00   6.988514e-09   3.120459e-01
     75   6.892766e+01   1.141564e-01   1.658160e+00   7.128268e-09   3.120459e-01
     76   6.967766e+01   1.165365e-01   1.641268e+00   7.269491e-09   3.120459e-01
     77   7.042766e+01   1.189414e-01   1.624728e+00   7.412189e-09   3.120459e-01
     78   7.117766e+01   1.213710e-01   1.608529e+00   7.556379e-09   3.120459e-01
     79   7.192766e+01   1.238255e-01   1.592662e+00   7.702072e-09   3.120459e-01
     80   7.267766e+01   1.263047e-01   1.577118e+00   7.849281e-09   3.120459e-01
     81   7.342766e+01   1.288089e-01   1.561886e+00   7.998020e-09   3.120458e-01
     82   7.417766e+01   1.313379e-01   1.546959e+00   8.148306e-09   3.120458e-01
     83   7.492766e+01   1.338918e-01   1.532328e+00   8.300148e-09   3.120458e-01
     84   7.567766e+01   1.364706e-01   1.517985e+00   8.453562e-09   3.120458e-01
     85   7.642766e+01   1.390744e-01   1.503921e+00   8.608566e-09   3.120458e-01
     86   7.717766e+01   1.417031e-01   1.490130e+00   8.765180e-09   3.120458e-01
     87   7.792766e+01   1.443569e-01   1.476605e+00   8.923417e-09   3.120458e-01
     88   7.867766e+01   1.470358e-01   1.463338e+00   9.083301e-09   3.120458e-01
     89   7.942766e+01   1.497397e-01   1.450322e+00   9.244848e-09   3.120458e-01
     90   8.017766e+01   1.524688e-01   1.437552e+00   9.408079e-09   3.120458e-01
     91   8.092766e+01   1.552231e-01   1.425021e+00   9.573010e-09   3.120458e-01
     92   8.167766e+01   1.580026e-01   1.412723e+00   9.739663e-09   3.120458e-01
     93   8.242766e+01   1.608073e-01   1.400653e+00   9.908065e-09   3.120458e-01
     94   8.317766e+01   1.636374e-01   1.388805e+00   1.007824e-08   3.120458e-01
     95   8.392766e+01   1.664928e-01   1.377173e+00   1.025021e-08   3.120458e-01
     96   8.467766e+01   1.693736e-01   1.365753e+00   1.042401e-08   3.120458e-01
     97   8.542766e+01   1.722799e-01   1.354540e+00   1.059966e-08   3.120458e-01
     98   8.617766e+01   1.752116e-01   1.343529e+00   1.077721e-08   3.120458e-01
     99   8.692766e+01   1.781690e-01   1.332715e+00   1.095667e-08   3.120458e-01
    100   8.767766e+01   1.811520e-01   1.322094e+00   1.113810e-08   3.120457e-01
    101   8.842766e+01   1.841607e-01   1.311661e+00   1.132152e-08   3.120457e-01
    102   8.917766e+01   1.871951e-01   1.301413e+00   1.150696e-08   3.120457e-01
    103   8.992766e+01   1.902554e-01   1.291346e+00   1.169446e-08   3.120457e-01
    104   9.067766e+01   1.933415e-01   1.281456e+00   1.188405e-08   3.120457e-01
    105   9.142766e+01   1.964536e-01   1.271738e+00   1.207577e-08   3.120457e-01
    106   9.217766e+01   1.995918e-01   1.262190e+00   1.226965e-08   3.120457e-01
    107   9.292766e+01   2.027561e-01   1.252809e+00   1.246574e-08   3.120457e-01
    108   9.367766e+01   2.059466e-01   1.243590e+00   1.266406e-08   3.120457e-01
    109   9.442766e+01   2.091634e-01   1.234531e+00   1.286465e-08   3.120457e-01
    110   9.517766e+01   2.124066e-01   1.225628e+00   1.306755e-08   3.120457e-01
    111   9.592766e+01   2.156762e-01   1.216879e+00   1.327278e-08   3.120457e-01
    112   9.667766e+01   2.189724e-01   1.208280e+00   1.348034e-08   3.120457e-01
    113   9.742766e+01   2.222953e-01   1.199830e+00   1.369024e-08   3.120457e-01
    114   9.817766e+01   2.256450e-01   1.191524e+00   1.390249e-08   3.120457e-01
    115   9.892766e+01   2.290215e-01   1.183362e+00   1.411715e-08   3.120457e-01
    116   9.967766e+01   2.324251e-01   1.175339e+00   1.433420e-08   3.120456e-01
    117   1.004277e+02   2.358558e-01   1.167454e+00   1.455366e-08   3.120456e-01
    118   1.011777e+02   2.393137e-01   1.159705e+00   1.477553e-08   3.120456e-01
    119   1.019277e+02   2.427990e-01   1.152089e+00   1.499980e-08   3.120456e-01
    120   1.026777e+02   2.463117e-01   1.144604e+00   1.522651e-08   3.120456e-01
    121   1.034277e+02   2.498521e-01   1.137248e+00   1.545571e-08   3.120456e-01
    122   1.041777e+02   2.534203e-01   1.130018e+00   1.568737e-08   3.120456e-01
    123   1.049277e+02   2.570164e-01   1.122914e+00   1.592156e-08   3.120456e-01
    124   1.056777e+02   2.606405e-01   1.115933e+00   1.615826e-08   3.120456e-01
    125   1.064277e+02   2.642929e-01   1.109073e+00   1.639750e-08   3.120456e-01
    126   1.071777e+02   2.679736e-01   1.102333e+00   1.663930e-08   3.120456e-01
    127   1.079277e+02   2.716829e-01   1.095710e+00   1.688367e-08   3.120456e-01
    128   1.086777e+02   2.754210e-01   1.089204e+00   1.713061e-08   3.120456e-01
    129   1.094277e+02   2.791879e-01   1.082813e+00   1.738019e-08   3.120455e-01
    130   1.101777e+02   2.829840e-01   1.076535e+00   1.763242e-08   3.120455e-01
    131   1.109277e+02   2.868093e-01   1.070369e+00   1.788725e-08   3.120455e-01
    132   1.116777e+02   2.906642e-01   1.064313e+00   1.814478e-08   3.120455e-01
    133   1.124277e+02   2.945487e-01   1.058366e+00   1.840492e-08   3.120455e-01
    134   1.131777e+02   2.984631e-01   1.052527e+00   1.866767e-08   3.120455e-01
    135   1.139277e+02   3.024077e-01   1.046795e+00   1.893284e-08   3.120455e-01
    136   1.146777e+02   3.063827e-01   1.041168e+00   1.920032e-08   3.120455e-01
    137   1.154277e+02   3.103882e-01   1.035646e+00   1.947003e-08   3.120455e-01
    138   1.161777e+02   3.144246e-01   1.030226e+00   1.974180e-08   3.120455e-01
    139   1.169277e+02   3.184921e-01   1.024909e+00   2.001557e-08   3.120455e-01
    140   1.176777e+02   3.225910e-01   1.019694e+00   2.029126e-08   3.120455e-01
    141   1.184277e+02   3.267215e-01   1.014578e+00   2.056885e-08   3.120454e-01
    142   1.191777e+02   3.308839e-01   1.009562e+00   2.084840e-08   3.120454e-01
