# power spectrum of zeta (dimensionless)
# redshift z=96.079122
# k              Pk             sigma(k)       sigma(Pk)      count
  1.554082e-03   1.663155e-23   3.849967e-04   2.068644e-24   146
  3.315891e-03   3.098698e-22   5.645617e-04   1.203758e-23   1042
  5.255560e-03   1.579706e-21   5.631710e-04   3.381862e-23   2698
  7.226238e-03   4.909578e-21   5.714963e-04   7.273742e-23   5206
  9.236952e-03   1.136926e-20   5.879031e-04   1.309438e-22   8752
  1.128500e-02   2.223899e-20   5.950186e-04   1.985918e-22   13258
  1.332029e-02   3.857441e-20   5.812860e-04   2.933081e-22   18070
  1.533799e-02   5.974242e-20   5.833601e-04   3.899851e-22   24050
  1.738769e-02   8.659185e-20   5.989399e-04   4.913078e-22   31720
  1.943477e-02   1.198146e-19   5.849109e-04   6.088912e-22   38722
  2.146405e-02   1.562999e-19   5.862639e-04   7.282764e-22   47398
  2.349979e-02   1.987460e-19   5.882944e-04   8.339161e-22   56986
  2.554151e-02   2.463876e-19   5.907046e-04   9.579411e-22   67552
  2.758014e-02   3.003649e-19   5.872674e-04   1.076776e-21   78310
  2.961557e-02   3.492861e-19   5.882808e-04   1.170374e-21   90514
  3.164924e-02   4.086773e-19   5.857631e-04   1.287749e-21   102938
  3.368563e-02   4.615692e-19   5.901325e-04   1.351065e-21   117412
  3.572860e-02   5.293612e-19   5.900212e-04   1.456448e-21   132106
  3.776869e-02   5.927382e-19   5.879385e-04   1.547509e-21   147154
  3.980581e-02   6.553918e-19   5.881164e-04   1.622472e-21   163522
  4.184971e-02   7.263807e-19   5.917380e-04   1.705662e-21   181804
  4.388716e-02   7.988775e-19   5.852792e-04   1.810717e-21   197722
  4.592521e-02   8.760922e-19   5.913571e-04   1.872052e-21   218866
  4.796858e-02   9.691440e-19   5.883333e-04   1.988200e-21   237542
  5.000645e-02   1.053702e-18   5.882751e-04   2.076385e-21   258136
  5.204613e-02   1.148892e-18   5.892119e-04   2.177176e-21   280066
  5.408484e-02   1.245376e-18   5.879532e-04   2.275144e-21   301774
  5.612494e-02   1.354033e-18   5.897386e-04   2.368233e-21   326050
  5.816725e-02   1.472668e-18   5.892357e-04   2.498945e-21   349792
  6.020894e-02   1.593722e-18   5.898220e-04   2.613933e-21   375154
  6.224878e-02   1.714828e-18   5.878390e-04   2.727873e-21   399742
  6.428502e-02   1.851824e-18   5.877282e-04   2.838741e-21   426266
  6.632420e-02   1.976685e-18   5.892967e-04   2.935820e-21   454960
  6.836448e-02   2.110382e-18   5.887382e-04   3.039821e-21   482734
  7.040483e-02   2.245806e-18   5.895060e-04   3.138689e-21   512746
  7.244666e-02   2.378906e-18   5.892082e-04   3.229608e-21   542746
  7.448833e-02   2.489504e-18   5.895081e-04   3.287278e-21   573952
  7.652873e-02   2.613062e-18   5.886192e-04   3.379963e-21   604918
  7.856782e-02   2.741050e-18   5.887181e-04   3.436228e-21   637666
  8.060887e-02   2.844377e-18   5.897344e-04   3.462463e-21   672482
  8.265024e-02   2.962467e-18   5.887854e-04   3.526826e-21   705748
  8.468883e-02   3.055782e-18   5.884884e-04   3.543188e-21   740482
  8.673009e-02   3.148608e-18   5.901845e-04   3.562802e-21   779026
  8.877006e-02   3.234503e-18   5.875992e-04   3.587942e-21   812614
  9.081033e-02   3.327566e-18   5.902277e-04   3.602989e-21   854200
  9.285241e-02   3.421998e-18   5.887737e-04   3.627572e-21   890746
  9.489189e-02   3.511648e-18   5.888028e-04   3.634532e-21   930394
  9.693174e-02   3.607432e-18   5.888121e-04   3.668489e-21   970982
  9.897209e-02   3.703282e-18   5.890745e-04   3.682685e-21   1012600
  1.010137e-01   3.803124e-18   5.897237e-04   3.707674e-21   1055890
  1.030542e-01   3.912769e-18   5.884073e-04   3.753949e-21   1096630
  1.050933e-01   4.022830e-18   5.887890e-04   3.769963e-21   1141378
  1.071337e-01   4.148576e-18   5.890564e-04   3.814556e-21   1186552
  1.091740e-01   4.283774e-18   5.889981e-04   3.864858e-21   1231798
  1.112148e-01   4.424591e-18   5.893633e-04   3.922315e-21   1279234
  1.132559e-01   4.582391e-18   5.890093e-04   3.986801e-21   1325906
  1.152965e-01   4.746045e-18   5.891197e-04   4.055255e-21   1374352
  1.173364e-01   4.907321e-18   5.886007e-04   4.124495e-21   1421950
  1.193758e-01   5.095829e-18   5.890300e-04   4.204247e-21   1472962
  1.214157e-01   5.264959e-18   5.886064e-04   4.269926e-21   1522954
  1.234545e-01   5.437445e-18   5.884752e-04   4.342503e-21   1573804
  1.254965e-01   5.621901e-18   5.906693e-04   4.401821e-21   1632274
  1.275390e-01   5.795050e-18   5.886302e-04   4.471502e-21   1680226
  1.295769e-01   5.959043e-18   5.879889e-04   4.538348e-21   1732682
  1.316167e-01   6.125472e-18   5.894980e-04   4.576744e-21   1792204
  1.336589e-01   6.285745e-18   5.896575e-04   4.623311e-21   1848298
  1.356989e-01   6.425425e-18   5.883050e-04   4.674053e-21   1901050
  1.377383e-01   6.551268e-18   5.890297e-04   4.675096e-21   1961326
  1.397792e-01   6.667676e-18   5.892228e-04   4.702341e-21   2020312
  1.418209e-01   6.794218e-18   5.895741e-04   4.713133e-21   2080930
  1.438627e-01   6.890444e-18   5.893024e-04   4.713778e-21   2140390
  1.459026e-01   6.988436e-18   5.883405e-04   4.722098e-21   2198162
  1.479427e-01   7.068354e-18   5.893956e-04   4.699313e-21   2263864
  1.499842e-01   7.154241e-18   5.893769e-04   4.689620e-21   2326426
  1.520249e-01   7.230456e-18   5.889045e-04   4.675510e-21   2388550
  1.540650e-01   7.298497e-18   5.888570e-04   4.654875e-21   2453098
  1.561047e-01   7.380805e-18   5.886971e-04   4.651394e-21   2517592
  1.581449e-01   7.477293e-18   5.892905e-04   4.660954e-21   2586070
  1.601854e-01   7.555194e-18   5.889181e-04   4.640922e-21   2651842
  1.622257e-01   7.648034e-18   5.889579e-04   4.624342e-21   2720330
  1.642669e-01   7.754528e-18   5.894439e-04   4.648002e-21   2791156
  1.663078e-01   7.872136e-18   5.889934e-04   4.660281e-21   2858554
  1.683481e-01   7.995019e-18   5.890635e-04   4.671889e-21   2929594
  1.703877e-01   8.132741e-18   5.885431e-04   4.695426e-21   2998762
  1.724278e-01   8.274548e-18   5.891948e-04   4.722928e-21   3074188
  1.744675e-01   8.446500e-18   5.885376e-04   4.760449e-21   3143482
  1.765088e-01   8.608568e-18   5.900653e-04   4.790646e-21   3226186
  1.785498e-01   8.776485e-18   5.882615e-04   4.850102e-21   3291158
  1.805901e-01   8.960830e-18   5.897179e-04   4.879584e-21   3375112
  1.826317e-01   9.154462e-18   5.890290e-04   4.933781e-21   3447658
  1.846719e-01   9.330615e-18   5.889171e-04   4.973293e-21   3524626
  1.867120e-01   9.513636e-18   5.888543e-04   5.019598e-21   3602998
  1.887512e-01   9.695857e-18   5.883706e-04   5.055699e-21   3678592
  1.907908e-01   9.864026e-18   5.892546e-04   5.083353e-21   3764122
  1.928324e-01   1.003463e-17   5.894579e-04   5.119189e-21   3846598
  1.948727e-01   1.020497e-17   5.885077e-04   5.150274e-21   3922250
  1.969136e-01   1.034723e-17   5.896943e-04   5.172744e-21   4013032
  1.989552e-01   1.048031e-17   5.889700e-04   5.177331e-21   4091182
  2.009950e-01   1.060643e-17   5.887664e-04   5.195949e-21   4174282
  2.030353e-01   1.072454e-17   5.891040e-04   5.195905e-21   4261978
  2.050762e-01   1.082009e-17   5.892160e-04   5.186640e-21   4348624
  2.071163e-01   1.092048e-17   5.886637e-04   5.186822e-21   4431430
  2.091564e-01   1.099989e-17   5.892138e-04   5.175260e-21   4523290
  2.111972e-01   1.108947e-17   5.891043e-04   5.168912e-21   4611386
  2.132376e-01   1.117065e-17   5.888473e-04   5.159010e-21   4698814
  2.152782e-01   1.124757e-17   5.893426e-04   5.136012e-21   4792984
  2.173194e-01   1.132893e-17   5.892017e-04   5.124380e-21   4883194
  2.193596e-01   1.138574e-17   5.887755e-04   5.109244e-21   4971694
  2.214001e-01   1.146379e-17   5.893212e-04   5.093718e-21   5069434
  2.234405e-01   1.156907e-17   5.886957e-04   5.095647e-21   5157736
  2.254804e-01   1.165859e-17   5.891220e-04   5.094736e-21   5256202
  2.275212e-01   1.175258e-17   5.891252e-04   5.084929e-21   5351990
  2.295614e-01   1.186315e-17   5.887454e-04   5.084838e-21   5444914
  2.316024e-01   1.198139e-17   5.895775e-04   5.083685e-21   5550088
  2.336441e-01   1.211280e-17   5.892314e-04   5.094698e-21   5644774
  2.356844e-01   1.223924e-17   5.887291e-04   5.110977e-21   5739034
  2.377243e-01   1.239369e-17   5.889493e-04   5.130749e-21   5841154
  2.397648e-01   1.253719e-17   5.891188e-04   5.141835e-21   5943448
  2.418057e-01   1.269525e-17   5.891894e-04   5.162447e-21   6045670
  2.438457e-01   1.286974e-17   5.886738e-04   5.192316e-21   6142586
  2.458857e-01   1.302664e-17   5.890965e-04   5.207705e-21   6250738
  2.479269e-01   1.319093e-17   5.893339e-04   5.233308e-21   6357172
  2.499678e-01   1.335073e-17   5.890271e-04   5.253186e-21   6458506
  2.520084e-01   1.351946e-17   5.891472e-04   5.274432e-21   6566290
  2.540484e-01   1.366363e-17   5.886483e-04   5.294992e-21   6667414
  2.560881e-01   1.381860e-17   5.889729e-04   5.303986e-21   6778336
  2.581289e-01   1.397884e-17   5.893065e-04   5.323572e-21   6890218
  2.601690e-01   1.411932e-17   5.886464e-04   5.339820e-21   6992306
  2.622097e-01   1.424724e-17   5.895050e-04   5.346611e-21   7113454
  2.642508e-01   1.438152e-17   5.888931e-04   5.357122e-21   7216216
  2.662907e-01   1.448790e-17   5.889220e-04   5.348038e-21   7328218
  2.683311e-01   1.459478e-17   5.891504e-04   5.351041e-21   7444414
  2.703714e-01   1.468683e-17   5.887477e-04   5.346745e-21   7553290
  2.724122e-01   1.478582e-17   5.894442e-04   5.337477e-21   7676368
  2.744529e-01   1.488652e-17   5.888427e-04   5.339275e-21   7783150
  2.764932e-01   1.496166e-17   5.891771e-04   5.322462e-21   7904570
  2.785337e-01   1.503571e-17   5.888377e-04   5.313702e-21   8017570
  2.805747e-01   1.512206e-17   5.894749e-04   5.299720e-21   8143840
  2.826158e-01   1.521159e-17   5.889589e-04   5.296935e-21   8255134
  2.846555e-01   1.528266e-17   5.886996e-04   5.282281e-21   8371450
  2.866957e-01   1.537089e-17   5.891278e-04   5.276665e-21   8498578
  2.887371e-01   1.546578e-17   5.893995e-04   5.266822e-21   8623180
  2.907783e-01   1.556222e-17   5.891794e-04   5.266343e-21   8742034
  2.928185e-01   1.566190e-17   5.887409e-04   5.264617e-21   8859194
  2.948582e-01   1.575774e-17   5.888043e-04   5.259070e-21   8984386
  2.968984e-01   1.588007e-17   5.889953e-04   5.262253e-21   9111652
  2.989394e-01   1.599643e-17   5.894313e-04   5.261116e-21   9243322
  3.009801e-01   1.611412e-17   5.888434e-04   5.269976e-21   9361378
  3.030204e-01   1.624378e-17   5.890316e-04   5.277096e-21   9491998
  3.050606e-01   1.638476e-17   5.889315e-04   5.283630e-21   9618016
  3.071010e-01   1.652346e-17   5.891205e-04   5.295773e-21   9750178
  3.091413e-01   1.663667e-17   5.888404e-04   5.294498e-21   9875558
  3.111820e-01   1.681098e-17   5.893640e-04   5.312846e-21   10015834
  3.132223e-01   1.692353e-17   5.885801e-04   5.319469e-21   10133344
  3.152627e-01   1.706939e-17   5.895529e-04   5.327073e-21   10282522
  3.173040e-01   1.721266e-17   5.889812e-04   5.338651e-21   10406974
  3.193437e-01   1.732878e-17   5.886096e-04   5.343220e-21   10534378
  3.213841e-01   1.746764e-17   5.894405e-04   5.341823e-21   10684456
  3.234254e-01   1.760648e-17   5.890917e-04   5.352030e-21   10813894
  3.254654e-01   1.772179e-17   5.887488e-04   5.360088e-21   10944626
  3.275058e-01   1.783932e-17   5.892300e-04   5.359319e-21   11091802
  3.295466e-01   1.794944e-17   5.889694e-04   5.359488e-21   11224756
  3.315871e-01   1.804734e-17   5.891399e-04   5.350721e-21   11367730
  3.336279e-01   1.816466e-17   5.891097e-04   5.354661e-21   11507890
  3.356680e-01   1.826543e-17   5.886912e-04   5.353904e-21   11640658
  3.377084e-01   1.835720e-17   5.893412e-04   5.351561e-21   11795380
  3.397495e-01   1.844057e-17   5.891216e-04   5.338392e-21   11933434
  3.417900e-01   1.852884e-17   5.889963e-04   5.334764e-21   12074954
  3.438308e-01   1.862758e-17   5.892532e-04   5.328335e-21   12225142
  3.458709e-01   1.871442e-17   5.885745e-04   5.326399e-21   12356104
  3.479106e-01   1.879703e-17   5.891058e-04   5.314593e-21   12513442
  3.499516e-01   1.889815e-17   5.892873e-04   5.310495e-21   12664810
  3.519928e-01   1.897078e-17   5.891937e-04   5.300691e-21   12811246
  3.540334e-01   1.906911e-17   5.889181e-04   5.296059e-21   12953536
  3.560735e-01   1.917065e-17   5.890044e-04   5.300267e-21   13105042
  3.581140e-01   1.925642e-17   5.891192e-04   5.287397e-21   13258670
  3.601546e-01   1.936568e-17   5.890325e-04   5.292803e-21   13408738
  3.621953e-01   1.946611e-17   5.890899e-04   5.286018e-21   13562320
  3.642355e-01   1.957984e-17   5.888450e-04   5.293607e-21   13709062
  3.662757e-01   1.967593e-17   5.891202e-04   5.280567e-21   13870258
  3.683171e-01   1.978796e-17   5.894186e-04   5.283107e-21   14032714
  3.703575e-01   1.990971e-17   5.886241e-04   5.292473e-21   14169232
  3.723976e-01   2.003050e-17   5.891956e-04   5.293139e-21   14339422
  3.744381e-01   2.013825e-17   5.888919e-04   5.290817e-21   14489330
  3.764785e-01   2.025585e-17   5.891282e-04   5.290430e-21   14654458
  3.785190e-01   2.037578e-17   5.889293e-04   5.300531e-21   14808292
  3.805593e-01   2.049386e-17   5.890179e-04   5.296806e-21   14970130
  3.825997e-01   2.061974e-17   5.890254e-04   5.302976e-21   15131626
  3.846399e-01   2.073201e-17   5.888648e-04   5.303816e-21   15289198
  3.866807e-01   2.085441e-17   5.894136e-04   5.304071e-21   15466552
  3.887217e-01   2.095345e-17   5.889267e-04   5.302311e-21   15616714
  3.907617e-01   2.106067e-17   5.889009e-04   5.305574e-21   15780506
  3.928022e-01   2.116629e-17   5.891699e-04   5.301774e-21   15953542
  3.948433e-01   2.128520e-17   5.892495e-04   5.301181e-21   16121296
  3.968834e-01   2.137795e-17   5.886227e-04   5.303983e-21   16270762
  3.989235e-01   2.146121e-17   5.892919e-04   5.292443e-21   16457182
  4.009646e-01   2.156854e-17   5.891739e-04   5.290242e-21   16623562
  4.030052e-01   2.165437e-17   5.889160e-04   5.284066e-21   16785784
  4.050455e-01   2.176351e-17   5.890644e-04   5.285235e-21   16959370
  4.070861e-01   2.185312e-17   5.891235e-04   5.279965e-21   17132774
  4.091266e-01   2.191841e-17   5.889569e-04   5.272841e-21   17300602
  4.111672e-01   2.200615e-17   5.891834e-04   5.262692e-21   17480656
  4.132078e-01   2.210389e-17   5.889644e-04   5.264008e-21   17647558
  4.152481e-01   2.219403e-17   5.890172e-04   5.258857e-21   17823778
  4.172887e-01   2.230522e-17   5.890581e-04   5.255520e-21   18001594
  4.193290e-01   2.239178e-17   5.888841e-04   5.251957e-21   18172300
  4.213694e-01   2.246947e-17   5.891306e-04   5.246566e-21   18356770
  4.234105e-01   2.256598e-17   5.893313e-04   5.244251e-21   18541082
  4.254516e-01   2.266411e-17   5.891095e-04   5.238676e-21   18713914
  4.274917e-01   2.275537e-17   5.886533e-04   5.239879e-21   18879742
  4.295318e-01   2.284415e-17   5.892187e-04   5.230211e-21   19077592
  4.315727e-01   2.294933e-17   5.891074e-04   5.226111e-21   19255474
  4.336133e-01   2.304423e-17   5.890497e-04   5.225525e-21   19436278
  4.356531e-01   2.315012e-17   5.886327e-04   5.229589e-21   19605994
  4.376936e-01   2.325420e-17   5.894559e-04   5.226004e-21   19817344
  4.397347e-01   2.336855e-17   5.889775e-04   5.225392e-21   19985702
  4.417750e-01   2.343793e-17   5.890630e-04   5.218180e-21   20175730
  4.438152e-01   2.354824e-17   5.887860e-04   5.219901e-21   20352682
  4.458557e-01   2.366057e-17   5.893597e-04   5.220181e-21   20559616
  4.478969e-01   2.375528e-17   5.891648e-04   5.215862e-21   20741518
  4.499369e-01   2.386954e-17   5.886230e-04   5.219924e-21   20912026
  4.519768e-01   2.395783e-17   5.891225e-04   5.212355e-21   21121018
  4.540176e-01   2.405627e-17   5.890883e-04   5.212161e-21   21310012
  4.560579e-01   2.415441e-17   5.889301e-04   5.210802e-21   21496154
  4.580989e-01   2.425645e-17   5.893557e-04   5.206195e-21   21705946
  4.601398e-01   2.434702e-17   5.889070e-04   5.201672e-21   21882562
  4.621802e-01   2.444304e-17   5.891458e-04   5.200716e-21   22085428
  4.642214e-01   2.453460e-17   5.893143e-04   5.197414e-21   22287106
  4.662615e-01   2.461611e-17   5.885500e-04   5.196515e-21   22455010
  4.683013e-01   2.472791e-17   5.890571e-04   5.194993e-21   22671694
  4.703421e-01   2.480242e-17   5.892012e-04   5.186431e-21   22874368
  4.723830e-01   2.489766e-17   5.891203e-04   5.185385e-21   23070146
  4.744235e-01   2.498803e-17   5.889653e-04   5.183692e-21   23264038
  4.764637e-01   2.506987e-17   5.889570e-04   5.175469e-21   23464210
  4.785045e-01   2.515423e-17   5.893101e-04   5.168458e-21   23679208
  4.805453e-01   2.524594e-17   5.889894e-04   5.168812e-21   23868658
  4.825856e-01   2.531533e-17   5.889440e-04   5.162154e-21   24070582
  4.846259e-01   2.541919e-17   5.890549e-04   5.159163e-21   24278842
  4.866664e-01   2.548985e-17   5.890268e-04   5.152952e-21   24482272
  4.887069e-01   2.557473e-17   5.890750e-04   5.148939e-21   24689510
  4.907474e-01   2.567497e-17   5.890195e-04   5.147426e-21   24894634
  4.927881e-01   2.576778e-17   5.891565e-04   5.143761e-21   25108474
  4.948289e-01   2.583635e-17   5.890919e-04   5.134941e-21   25313116
  4.968692e-01   2.593853e-17   5.889389e-04   5.136659e-21   25515970
  4.989095e-01   2.603021e-17   5.889848e-04   5.130450e-21   25727962
  5.009501e-01   2.611040e-17   5.892016e-04   5.125860e-21   25948954
  5.029911e-01   2.620280e-17   5.891242e-04   5.124819e-21   26157220
  5.050312e-01   2.629777e-17   5.887329e-04   5.123690e-21   26351546
  5.070713e-01   2.639445e-17   5.891599e-04   5.121367e-21   26585314
  5.091124e-01   2.648260e-17   5.891783e-04   5.115884e-21   26800630
  5.111529e-01   2.656954e-17   5.889142e-04   5.115148e-21   27003376
  5.131928e-01   2.665388e-17   5.887939e-04   5.112513e-21   27213202
  5.152333e-01   2.673153e-17   5.893371e-04   5.102690e-21   27455194
  5.172745e-01   2.682937e-17   5.891605e-04   5.100767e-21   27666070
  5.193150e-01   2.693966e-17   5.888642e-04   5.101815e-21   27870280
  5.213548e-01   2.700097e-17   5.888416e-04   5.093815e-21   28088090
  5.233952e-01   2.709097e-17   5.892064e-04   5.090228e-21   28326262
  5.254363e-01   2.719699e-17   5.891855e-04   5.089552e-21   28546906
  5.274771e-01   2.728010e-17   5.890514e-04   5.087083e-21   28762552
  5.295175e-01   2.736549e-17   5.889643e-04   5.085465e-21   28979734
  5.315579e-01   2.743154e-17   5.891116e-04   5.076236e-21   29211106
  5.335984e-01   2.753360e-17   5.890058e-04   5.076492e-21   29431738
  5.356386e-01   2.762203e-17   5.888449e-04   5.073288e-21   29648776
  5.376788e-01   2.769357e-17   5.891295e-04   5.067012e-21   29888654
  5.397198e-01   2.778192e-17   5.892792e-04   5.062605e-21   30123490
  5.417605e-01   2.785622e-17   5.889187e-04   5.059258e-21   30334570
  5.438008e-01   2.794363e-17   5.889866e-04   5.056353e-21   30566524
  5.458411e-01   2.802882e-17   5.890413e-04   5.049974e-21   30798370
  5.478823e-01   2.810367e-17   5.894562e-04   5.043628e-21   31052026
  5.499229e-01   2.819849e-17   5.886551e-04   5.046286e-21   31241782
  5.519630e-01   2.828194e-17   5.891853e-04   5.038554e-21   31502128
  5.540036e-01   2.835943e-17   5.889524e-04   5.036266e-21   31721474
  5.560439e-01   2.843693e-17   5.890206e-04   5.032208e-21   31960210
  5.580845e-01   2.851027e-17   5.890910e-04   5.025405e-21   32200582
  5.601251e-01   2.859317e-17   5.889897e-04   5.020251e-21   32429512
  5.621660e-01   2.867997e-17   5.893423e-04   5.015880e-21   32685226
  5.642068e-01   2.875602e-17   5.889439e-04   5.015001e-21   32900830
  5.662468e-01   2.885465e-17   5.888631e-04   5.013961e-21   33135682
  5.682871e-01   2.891339e-17   5.890598e-04   5.002842e-21   33385288
  5.703276e-01   2.901026e-17   5.890887e-04   5.003385e-21   33625706
  5.723684e-01   2.909261e-17   5.891781e-04   4.997145e-21   33873550
  5.744087e-01   2.916628e-17   5.887629e-04   4.994450e-21   34091770
