# power spectrum of phi
# redshift z=29.789116
# k              Pk             sigma(k)       sigma(Pk)      count
  1.554082e-03   7.507122e-10   3.849967e-04   7.240578e-11   146
  3.315891e-03   7.871913e-10   5.645617e-04   2.356099e-11   1042
  5.255560e-03   6.958589e-10   5.631710e-04   1.397071e-11   2698
  7.226238e-03   6.127735e-10   5.714963e-04   8.505759e-12   5206
  9.236952e-03   5.427304e-10   5.879031e-04   6.027461e-12   8752
  1.128500e-02   4.849036e-10   5.950186e-04   4.241452e-12   13258
  1.332029e-02   4.347426e-10   5.812860e-04   3.264528e-12   18070
  1.533799e-02   3.845670e-10   5.833601e-04   2.480544e-12   24050
  1.738769e-02   3.380579e-10   5.989399e-04   1.893989e-12   31720
  1.943477e-02   3.001945e-10   5.849109e-04   1.522539e-12   38722
  2.146405e-02   2.628324e-10   5.862639e-04   1.220098e-12   47398
  2.349979e-02   2.326167e-10   5.882944e-04   9.731414e-13   56986
  2.554151e-02   2.062851e-10   5.907046e-04   8.000078e-13   67552
  2.758014e-02   1.847391e-10   5.872674e-04   6.608383e-13   78310
  2.961557e-02   1.614002e-10   5.882808e-04   5.404980e-13   90514
  3.164924e-02   1.446625e-10   5.857631e-04   4.561254e-13   102938
  3.368563e-02   1.270924e-10   5.901325e-04   3.714394e-13   117412
  3.572860e-02   1.151234e-10   5.900212e-04   3.170482e-13   132106
  3.776869e-02   1.031812e-10   5.879385e-04   2.695761e-13   147154
  3.980581e-02   9.244419e-11   5.881164e-04   2.288928e-13   163522
  4.184971e-02   8.388526e-11   5.917380e-04   1.969077e-13   181804
  4.388716e-02   7.633273e-11   5.852792e-04   1.728449e-13   197722
  4.592521e-02   6.991015e-11   5.913571e-04   1.493609e-13   218866
  4.796858e-02   6.508572e-11   5.883333e-04   1.335503e-13   237542
  5.000645e-02   6.001480e-11   5.882751e-04   1.182128e-13   258136
  5.204613e-02   5.589182e-11   5.892119e-04   1.058932e-13   280066
  5.408484e-02   5.207073e-11   5.879532e-04   9.506482e-14   301774
  5.612494e-02   4.893904e-11   5.897386e-04   8.563266e-14   326050
  5.816725e-02   4.623052e-11   5.892357e-04   7.841275e-14   349792
  6.020894e-02   4.366903e-11   5.898220e-04   7.160633e-14   375154
  6.224878e-02   4.118966e-11   5.878390e-04   6.550414e-14   399742
  6.428502e-02   3.916463e-11   5.877282e-04   6.002299e-14   426266
  6.632420e-02   3.693535e-11   5.892967e-04   5.484896e-14   454960
  6.836448e-02   3.495323e-11   5.887382e-04   5.036073e-14   482734
  7.040483e-02   3.307253e-11   5.895060e-04   4.622685e-14   512746
  7.244666e-02   3.123592e-11   5.892082e-04   4.240835e-14   542746
  7.448833e-02   2.922942e-11   5.895081e-04   3.860400e-14   573952
  7.652873e-02   2.750748e-11   5.886192e-04   3.558329e-14   604918
  7.856782e-02   2.594091e-11   5.887181e-04   3.253734e-14   637666
  8.060887e-02   2.425285e-11   5.897344e-04   2.953056e-14   672482
  8.265024e-02   2.281119e-11   5.887854e-04   2.716460e-14   705748
  8.468883e-02   2.130081e-11   5.884884e-04   2.470314e-14   740482
  8.673009e-02   1.991077e-11   5.901845e-04   2.253525e-14   779026
  8.877006e-02   1.859869e-11   5.875992e-04   2.063842e-14   812614
  9.081033e-02   1.743800e-11   5.902277e-04   1.889179e-14   854200
  9.285241e-02   1.637433e-11   5.887737e-04   1.736370e-14   890746
  9.489189e-02   1.538072e-11   5.888028e-04   1.592513e-14   930394
  9.693174e-02   1.449435e-11   5.888121e-04   1.474464e-14   970982
  9.897209e-02   1.367566e-11   5.890745e-04   1.360276e-14   1012600
  1.010137e-01   1.293710e-11   5.897237e-04   1.261507e-14   1055890
  1.030542e-01   1.228384e-11   5.884073e-04   1.178826e-14   1096630
  1.050933e-01   1.168017e-11   5.887890e-04   1.094819e-14   1141378
  1.071337e-01   1.115881e-11   5.890564e-04   1.026101e-14   1186552
  1.091740e-01   1.069446e-11   5.889981e-04   9.649614e-15   1231798
  1.112148e-01   1.026822e-11   5.893633e-04   9.103523e-15   1279234
  1.132559e-01   9.900793e-12   5.890093e-04   8.616025e-15   1325906
  1.152965e-01   9.561020e-12   5.891197e-04   8.169767e-15   1374352
  1.173364e-01   9.228827e-12   5.886007e-04   7.757450e-15   1421950
  1.193758e-01   8.957472e-12   5.890300e-04   7.390899e-15   1472962
  1.214157e-01   8.658707e-12   5.886064e-04   7.022979e-15   1522954
  1.234545e-01   8.374330e-12   5.884752e-04   6.687630e-15   1573804
  1.254965e-01   8.115131e-12   5.906693e-04   6.354443e-15   1632274
  1.275390e-01   7.847048e-12   5.886302e-04   6.056679e-15   1680226
  1.295769e-01   7.574974e-12   5.879889e-04   5.769670e-15   1732682
  1.316167e-01   7.314373e-12   5.894980e-04   5.465649e-15   1792204
  1.336589e-01   7.055930e-12   5.896575e-04   5.190783e-15   1848298
  1.356989e-01   6.784266e-12   5.883050e-04   4.935721e-15   1901050
  1.377383e-01   6.511083e-12   5.890297e-04   4.647887e-15   1961326
  1.397792e-01   6.240635e-12   5.892228e-04   4.402081e-15   2020312
  1.418209e-01   5.992782e-12   5.895741e-04   4.158671e-15   2080930
  1.438627e-01   5.730971e-12   5.893024e-04   3.921495e-15   2140390
  1.459026e-01   5.485659e-12   5.883405e-04   3.708622e-15   2198162
  1.479427e-01   5.239112e-12   5.893956e-04   3.483989e-15   2263864
  1.499842e-01   5.011734e-12   5.893769e-04   3.286436e-15   2326426
  1.520249e-01   4.790312e-12   5.889045e-04   3.099094e-15   2388550
  1.540650e-01   4.576827e-12   5.888570e-04   2.920282e-15   2453098
  1.561047e-01   4.385253e-12   5.886971e-04   2.765034e-15   2517592
  1.581449e-01   4.212453e-12   5.892905e-04   2.627250e-15   2586070
  1.601854e-01   4.038970e-12   5.889181e-04   2.482084e-15   2651842
  1.622257e-01   3.883457e-12   5.889579e-04   2.349312e-15   2720330
  1.642669e-01   3.743098e-12   5.894439e-04   2.244379e-15   2791156
  1.663078e-01   3.615518e-12   5.889934e-04   2.141305e-15   2858554
  1.683481e-01   3.496866e-12   5.890635e-04   2.044261e-15   2929594
  1.703877e-01   3.389874e-12   5.885431e-04   1.957878e-15   2998762
  1.724278e-01   3.289653e-12   5.891948e-04   1.878540e-15   3074188
  1.744675e-01   3.205042e-12   5.885376e-04   1.807347e-15   3143482
  1.765088e-01   3.119484e-12   5.900653e-04   1.736909e-15   3226186
  1.785498e-01   3.039131e-12   5.882615e-04   1.680237e-15   3291158
  1.805901e-01   2.966754e-12   5.897179e-04   1.616244e-15   3375112
  1.826317e-01   2.899193e-12   5.890290e-04   1.563171e-15   3447658
  1.846719e-01   2.827799e-12   5.889171e-04   1.507994e-15   3524626
  1.867120e-01   2.760141e-12   5.888543e-04   1.457169e-15   3602998
  1.887512e-01   2.694108e-12   5.883706e-04   1.405717e-15   3678592
  1.907908e-01   2.625705e-12   5.892546e-04   1.353770e-15   3764122
  1.928324e-01   2.559438e-12   5.894579e-04   1.306648e-15   3846598
  1.948727e-01   2.494839e-12   5.885077e-04   1.259982e-15   3922250
  1.969136e-01   2.425185e-12   5.896943e-04   1.213212e-15   4013032
  1.989552e-01   2.355764e-12   5.889700e-04   1.164703e-15   4091182
  2.009950e-01   2.286960e-12   5.887664e-04   1.121272e-15   4174282
  2.030353e-01   2.218665e-12   5.891040e-04   1.075904e-15   4261978
  2.050762e-01   2.148377e-12   5.892160e-04   1.030825e-15   4348624
  2.071163e-01   2.081678e-12   5.886637e-04   9.897039e-16   4431430
  2.091564e-01   2.013564e-12   5.892138e-04   9.482577e-16   4523290
  2.111972e-01   1.950149e-12   5.891043e-04   9.099102e-16   4611386
  2.132376e-01   1.887821e-12   5.888473e-04   8.727224e-16   4698814
  2.152782e-01   1.827324e-12   5.893426e-04   8.352470e-16   4792984
  2.173194e-01   1.770069e-12   5.892017e-04   8.015561e-16   4883194
  2.193596e-01   1.711514e-12   5.887755e-04   7.689434e-16   4971694
  2.214001e-01   1.658784e-12   5.893212e-04   7.379059e-16   5069434
  2.234405e-01   1.612094e-12   5.886957e-04   7.109146e-16   5157736
  2.254804e-01   1.565180e-12   5.891220e-04   6.849286e-16   5256202
  2.275212e-01   1.520846e-12   5.891252e-04   6.588448e-16   5351990
  2.295614e-01   1.480231e-12   5.887454e-04   6.352626e-16   5444914
  2.316024e-01   1.442407e-12   5.895775e-04   6.128324e-16   5550088
  2.336441e-01   1.407383e-12   5.892314e-04   5.927827e-16   5644774
  2.356844e-01   1.373073e-12   5.887291e-04   5.741545e-16   5739034
  2.377243e-01   1.342914e-12   5.889493e-04   5.568021e-16   5841154
  2.397648e-01   1.312722e-12   5.891188e-04   5.392132e-16   5943448
  2.418057e-01   1.284831e-12   5.891894e-04   5.233560e-16   6045670
  2.438457e-01   1.259349e-12   5.886738e-04   5.089275e-16   6142586
  2.458857e-01   1.232737e-12   5.890965e-04   4.936576e-16   6250738
  2.479269e-01   1.207675e-12   5.893339e-04   4.800056e-16   6357172
  2.499678e-01   1.182593e-12   5.890271e-04   4.660967e-16   6458506
  2.520084e-01   1.158961e-12   5.891472e-04   4.530084e-16   6566290
  2.540484e-01   1.133817e-12   5.886483e-04   4.402704e-16   6667414
  2.560881e-01   1.110149e-12   5.889729e-04   4.269397e-16   6778336
  2.581289e-01   1.087427e-12   5.893065e-04   4.149670e-16   6890218
  2.601690e-01   1.063678e-12   5.886464e-04   4.031861e-16   6992306
  2.622097e-01   1.039502e-12   5.895050e-04   3.909638e-16   7113454
  2.642508e-01   1.016426e-12   5.888931e-04   3.794747e-16   7216216
  2.662907e-01   9.921905e-13   5.889220e-04   3.671311e-16   7328218
  2.683311e-01   9.684387e-13   5.891504e-04   3.559131e-16   7444414
  2.703714e-01   9.445528e-13   5.887477e-04   3.446999e-16   7553290
  2.724122e-01   9.217724e-13   5.894442e-04   3.336039e-16   7676368
  2.744529e-01   8.998747e-13   5.888427e-04   3.236576e-16   7783150
  2.764932e-01   8.769871e-13   5.891771e-04   3.128389e-16   7904570
  2.785337e-01   8.548301e-13   5.888377e-04   3.029627e-16   8017570
  2.805747e-01   8.341522e-13   5.894749e-04   2.932352e-16   8143840
  2.826158e-01   8.141917e-13   5.889589e-04   2.843406e-16   8255134
  2.846555e-01   7.940038e-13   5.886996e-04   2.753151e-16   8371450
  2.866957e-01   7.753077e-13   5.891278e-04   2.669961e-16   8498578
  2.887371e-01   7.576152e-13   5.893995e-04   2.588650e-16   8623180
  2.907783e-01   7.404879e-13   5.891794e-04   2.514340e-16   8742034
  2.928185e-01   7.240831e-13   5.887409e-04   2.442326e-16   8859194
  2.948582e-01   7.080045e-13   5.888043e-04   2.371423e-16   8984386
  2.968984e-01   6.936166e-13   5.889953e-04   2.306808e-16   9111652
  2.989394e-01   6.793759e-13   5.894313e-04   2.242919e-16   9243322
  3.009801e-01   6.655717e-13   5.888434e-04   2.185361e-16   9361378
  3.030204e-01   6.526897e-13   5.890316e-04   2.128973e-16   9491998
  3.050606e-01   6.405671e-13   5.889315e-04   2.074127e-16   9618016
  3.071010e-01   6.286650e-13   5.891205e-04   2.023635e-16   9750178
  3.091413e-01   6.161058e-13   5.888404e-04   1.969258e-16   9875558
  3.111820e-01   6.060456e-13   5.893640e-04   1.923942e-16   10015834
  3.132223e-01   5.940486e-13   5.885801e-04   1.875670e-16   10133344
  3.152627e-01   5.834918e-13   5.895529e-04   1.829506e-16   10282522
  3.173040e-01   5.730458e-13   5.889812e-04   1.786004e-16   10406974
  3.193437e-01   5.619101e-13   5.886096e-04   1.741188e-16   10534378
  3.213841e-01   5.518250e-13   5.894405e-04   1.696005e-16   10684456
  3.234254e-01   5.419309e-13   5.890917e-04   1.656068e-16   10813894
  3.254654e-01   5.315314e-13   5.887488e-04   1.616377e-16   10944626
  3.275058e-01   5.213743e-13   5.892300e-04   1.574980e-16   11091802
  3.295466e-01   5.113349e-13   5.889694e-04   1.535433e-16   11224756
  3.315871e-01   5.011204e-13   5.891399e-04   1.494595e-16   11367730
  3.336279e-01   4.916368e-13   5.891097e-04   1.457695e-16   11507890
  3.356680e-01   4.819907e-13   5.886912e-04   1.421304e-16   11640658
  3.377084e-01   4.723627e-13   5.893412e-04   1.385676e-16   11795380
  3.397495e-01   4.627864e-13   5.891216e-04   1.348447e-16   11933434
  3.417900e-01   4.535061e-13   5.889963e-04   1.314463e-16   12074954
  3.438308e-01   4.447408e-13   5.892532e-04   1.280775e-16   12225142
  3.458709e-01   4.358556e-13   5.885745e-04   1.249000e-16   12356104
  3.479106e-01   4.271868e-13   5.891058e-04   1.216374e-16   12513442
  3.499516e-01   4.191351e-13   5.892873e-04   1.186182e-16   12664810
  3.519928e-01   4.106674e-13   5.891937e-04   1.155875e-16   12811246
  3.540334e-01   4.029747e-13   5.889181e-04   1.127579e-16   12953536
  3.560735e-01   3.955341e-13   5.890044e-04   1.101929e-16   13105042
  3.581140e-01   3.879696e-13   5.891192e-04   1.073716e-16   13258670
  3.601546e-01   3.810621e-13   5.890325e-04   1.049663e-16   13408738
  3.621953e-01   3.741573e-13   5.890899e-04   1.024673e-16   13562320
  3.642355e-01   3.677080e-13   5.888450e-04   1.002713e-16   13709062
  3.662757e-01   3.610179e-13   5.891202e-04   9.772584e-17   13870258
  3.683171e-01   3.548178e-13   5.894186e-04   9.558277e-17   14032714
  3.703575e-01   3.489207e-13   5.886241e-04   9.360116e-17   14169232
  3.723976e-01   3.431086e-13   5.891956e-04   9.149913e-17   14339422
  3.744381e-01   3.372645e-13   5.888919e-04   8.946604e-17   14489330
  3.764785e-01   3.316260e-13   5.891282e-04   8.744897e-17   14654458
  3.785190e-01   3.262296e-13   5.889293e-04   8.570900e-17   14808292
  3.805593e-01   3.208803e-13   5.890179e-04   8.376683e-17   14970130
  3.825997e-01   3.157682e-13   5.890254e-04   8.204026e-17   15131626
  3.846399e-01   3.105323e-13   5.888648e-04   8.028678e-17   15289198
  3.866807e-01   3.055465e-13   5.894136e-04   7.854922e-17   15466552
  3.887217e-01   3.003409e-13   5.889267e-04   7.683946e-17   15616714
  3.907617e-01   2.953640e-13   5.889009e-04   7.523307e-17   15780506
  3.928022e-01   2.904275e-13   5.891699e-04   7.358328e-17   15953542
  3.948433e-01   2.858018e-13   5.892495e-04   7.200526e-17   16121296
  3.968834e-01   2.809471e-13   5.886227e-04   7.053708e-17   16270762
  3.989235e-01   2.760071e-13   5.892919e-04   6.888549e-17   16457182
  4.009646e-01   2.715106e-13   5.891739e-04   6.741511e-17   16623562
  4.030052e-01   2.668511e-13   5.889160e-04   6.594751e-17   16785784
  4.050455e-01   2.625461e-13   5.890644e-04   6.457710e-17   16959370
  4.070861e-01   2.581189e-13   5.891235e-04   6.318939e-17   17132774
  4.091266e-01   2.535054e-13   5.889569e-04   6.180364e-17   17300602
  4.111672e-01   2.492335e-13   5.891834e-04   6.042723e-17   17480656
  4.132078e-01   2.451815e-13   5.889644e-04   5.919055e-17   17647558
  4.152481e-01   2.411316e-13   5.890172e-04   5.796333e-17   17823778
  4.172887e-01   2.373833e-13   5.890581e-04   5.674554e-17   18001594
  4.193290e-01   2.334575e-13   5.888841e-04   5.557466e-17   18172300
  4.213694e-01   2.295462e-13   5.891306e-04   5.441674e-17   18356770
  4.234105e-01   2.258815e-13   5.893313e-04   5.331339e-17   18541082
  4.254516e-01   2.223042e-13   5.891095e-04   5.219563e-17   18713914
  4.274917e-01   2.187775e-13   5.886533e-04   5.119557e-17   18879742
  4.295318e-01   2.152849e-13   5.892187e-04   5.008983e-17   19077592
  4.315727e-01   2.119906e-13   5.891074e-04   4.908700e-17   19255474
  4.336133e-01   2.086753e-13   5.890497e-04   4.811253e-17   19436278
  4.356531e-01   2.055590e-13   5.886327e-04   4.724931e-17   19605994
  4.376936e-01   2.024657e-13   5.894559e-04   4.630380e-17   19817344
  4.397347e-01   1.995313e-13   5.889775e-04   4.541314e-17   19985702
  4.417750e-01   1.962492e-13   5.890630e-04   4.448887e-17   20175730
  4.438152e-01   1.933789e-13   5.887860e-04   4.366637e-17   20352682
  4.458557e-01   1.906082e-13   5.893597e-04   4.285860e-17   20559616
  4.478969e-01   1.877173e-13   5.891648e-04   4.203234e-17   20741518
  4.499369e-01   1.850099e-13   5.886230e-04   4.125004e-17   20912026
  4.519768e-01   1.821872e-13   5.891225e-04   4.043548e-17   21121018
  4.540176e-01   1.795085e-13   5.890883e-04   3.969182e-17   21310012
  4.560579e-01   1.768624e-13   5.889301e-04   3.895596e-17   21496154
  4.580989e-01   1.742741e-13   5.893557e-04   3.820954e-17   21705946
  4.601398e-01   1.716462e-13   5.889070e-04   3.746628e-17   21882562
  4.621802e-01   1.691479e-13   5.891458e-04   3.678252e-17   22085428
  4.642214e-01   1.666556e-13   5.893143e-04   3.610043e-17   22287106
  4.662615e-01   1.641196e-13   5.885500e-04   3.543768e-17   22455010
  4.683013e-01   1.618204e-13   5.890571e-04   3.478551e-17   22671694
  4.703421e-01   1.593508e-13   5.892012e-04   3.411272e-17   22874368
  4.723830e-01   1.570520e-13   5.891203e-04   3.350269e-17   23070146
  4.744235e-01   1.547565e-13   5.889653e-04   3.289420e-17   23264038
  4.764637e-01   1.524612e-13   5.889570e-04   3.226333e-17   23464210
  4.785045e-01   1.502243e-13   5.893101e-04   3.165172e-17   23679208
  4.805453e-01   1.480573e-13   5.889894e-04   3.109292e-17   23868658
  4.825856e-01   1.457985e-13   5.889440e-04   3.050790e-17   24070582
  4.846259e-01   1.437995e-13   5.890549e-04   2.995715e-17   24278842
  4.866664e-01   1.416464e-13   5.890268e-04   2.941189e-17   24482272
  4.887069e-01   1.396114e-13   5.890750e-04   2.888133e-17   24689510
  4.907474e-01   1.376860e-13   5.890195e-04   2.837968e-17   24894634
  4.927881e-01   1.357742e-13   5.891565e-04   2.788043e-17   25108474
  4.948289e-01   1.337610e-13   5.890919e-04   2.735019e-17   25313116
  4.968692e-01   1.319653e-13   5.889389e-04   2.690424e-17   25515970
  4.989095e-01   1.301436e-13   5.889848e-04   2.642507e-17   25727962
  5.009501e-01   1.282796e-13   5.892016e-04   2.595174e-17   25948954
  5.029911e-01   1.265262e-13   5.891242e-04   2.551093e-17   26157220
  5.050312e-01   1.248125e-13   5.887329e-04   2.508342e-17   26351546
  5.070713e-01   1.231489e-13   5.891599e-04   2.466430e-17   26585314
  5.091124e-01   1.214589e-13   5.891783e-04   2.422888e-17   26800630
  5.111529e-01   1.197939e-13   5.889142e-04   2.382831e-17   27003376
  5.131928e-01   1.181424e-13   5.887939e-04   2.342388e-17   27213202
  5.152333e-01   1.165118e-13   5.893371e-04   2.299721e-17   27455194
  5.172745e-01   1.149694e-13   5.891605e-04   2.262153e-17   27666070
  5.193150e-01   1.135179e-13   5.888642e-04   2.226238e-17   27870280
  5.213548e-01   1.118870e-13   5.888416e-04   2.186674e-17   28088090
  5.233952e-01   1.103890e-13   5.892064e-04   2.149330e-17   28326262
  5.254363e-01   1.090125e-13   5.891855e-04   2.115806e-17   28546906
  5.274771e-01   1.075368e-13   5.890514e-04   2.081435e-17   28762552
  5.295175e-01   1.061023e-13   5.889643e-04   2.047403e-17   28979734
  5.315579e-01   1.046187e-13   5.891116e-04   2.011169e-17   29211106
  5.335984e-01   1.032948e-13   5.890058e-04   1.979628e-17   29431738
  5.356386e-01   1.019491e-13   5.888449e-04   1.947179e-17   29648776
  5.376788e-01   1.005728e-13   5.891295e-04   1.914796e-17   29888654
  5.397198e-01   9.925459e-14   5.892792e-04   1.883129e-17   30123490
  5.417605e-01   9.791585e-14   5.889187e-04   1.852977e-17   30334570
  5.438008e-01   9.665506e-14   5.889866e-04   1.823318e-17   30566524
  5.458411e-01   9.541185e-14   5.890413e-04   1.793222e-17   30798370
  5.478823e-01   9.413465e-14   5.894562e-04   1.764023e-17   31052026
  5.499229e-01   9.294775e-14   5.886551e-04   1.737045e-17   31241782
  5.519630e-01   9.175846e-14   5.891853e-04   1.708873e-17   31502128
  5.540036e-01   9.056705e-14   5.889524e-04   1.682032e-17   31721474
  5.560439e-01   8.937384e-14   5.890206e-04   1.655094e-17   31960210
  5.580845e-01   8.820085e-14   5.890910e-04   1.628172e-17   32200582
  5.601251e-01   8.708775e-14   5.889897e-04   1.602450e-17   32429512
  5.621660e-01   8.600160e-14   5.893423e-04   1.577318e-17   32685226
  5.642068e-01   8.489492e-14   5.889439e-04   1.553774e-17   32900830
  5.662468e-01   8.387151e-14   5.888631e-04   1.530702e-17   33135682
  5.682871e-01   8.274812e-14   5.890598e-04   1.504726e-17   33385288
  5.703276e-01   8.175494e-14   5.890887e-04   1.482084e-17   33625706
  5.723684e-01   8.072106e-14   5.891781e-04   1.458742e-17   33873550
  5.744087e-01   7.969568e-14   5.887629e-04   1.437023e-17   34091770
  5.764491e-01   7.872441e-14   5.892514e-04   1.416023e-17   34362160
