# power spectrum of delta_kessence
# redshift z=0.931340
# k              Pk             sigma(k)       sigma(Pk)      count
  1.554082e-03   6.709224e-10   3.849967e-04   7.518614e-11   146
  3.315891e-03   7.085564e-09   5.645617e-04   2.645637e-10   1042
  5.255560e-03   3.198423e-08   5.631710e-04   6.789308e-10   2698
  7.226238e-03   9.598795e-08   5.714963e-04   1.418840e-09   5206
  9.236952e-03   2.204028e-07   5.879031e-04   2.536910e-09   8752
  1.128500e-02   4.299970e-07   5.950186e-04   3.839653e-09   13258
  1.332029e-02   7.443964e-07   5.812860e-04   5.660269e-09   18070
  1.533799e-02   1.150716e-06   5.833601e-04   7.511618e-09   24050
  1.738769e-02   1.664622e-06   5.989399e-04   9.445717e-09   31720
  1.943477e-02   2.297696e-06   5.849109e-04   1.167500e-08   38722
  2.146405e-02   2.990371e-06   5.862639e-04   1.392894e-08   47398
  2.349979e-02   3.792572e-06   5.882944e-04   1.591091e-08   56986
  2.554151e-02   4.690395e-06   5.907046e-04   1.823710e-08   67552
  2.758014e-02   5.701350e-06   5.872674e-04   2.043366e-08   78310
  2.961557e-02   6.613225e-06   5.882808e-04   2.216057e-08   90514
  3.164924e-02   7.718920e-06   5.857631e-04   2.432139e-08   102938
  3.368563e-02   8.698752e-06   5.901325e-04   2.546485e-08   117412
  3.572860e-02   9.957455e-06   5.900212e-04   2.739474e-08   132106
  3.776869e-02   1.113383e-05   5.879385e-04   2.906024e-08   147154
  3.980581e-02   1.229638e-05   5.881164e-04   3.044282e-08   163522
  4.184971e-02   1.362679e-05   5.917380e-04   3.201368e-08   181804
  4.388716e-02   1.497732e-05   5.852792e-04   3.394842e-08   197722
  4.592521e-02   1.642839e-05   5.913571e-04   3.512350e-08   218866
  4.796858e-02   1.817637e-05   5.883333e-04   3.729324e-08   237542
  5.000645e-02   1.977860e-05   5.882751e-04   3.898309e-08   258136
  5.204613e-02   2.159024e-05   5.892119e-04   4.090942e-08   280066
  5.408484e-02   2.341836e-05   5.879532e-04   4.277933e-08   301774
  5.612494e-02   2.549257e-05   5.897386e-04   4.457777e-08   326050
  5.816725e-02   2.777065e-05   5.892357e-04   4.713306e-08   349792
  6.020894e-02   3.005403e-05   5.898220e-04   4.925628e-08   375154
  6.224878e-02   3.235847e-05   5.878390e-04   5.146811e-08   399742
  6.428502e-02   3.493157e-05   5.877282e-04   5.357216e-08   426266
  6.632420e-02   3.725128e-05   5.892967e-04   5.533089e-08   454960
  6.836448e-02   3.974824e-05   5.887382e-04   5.724703e-08   482734
  7.040483e-02   4.225973e-05   5.895060e-04   5.909338e-08   512746
  7.244666e-02   4.466668e-05   5.892082e-04   6.063187e-08   542746
  7.448833e-02   4.664424e-05   5.895081e-04   6.160393e-08   573952
  7.652873e-02   4.883576e-05   5.886192e-04   6.315672e-08   604918
  7.856782e-02   5.107980e-05   5.887181e-04   6.405604e-08   637666
  8.060887e-02   5.284073e-05   5.897344e-04   6.433461e-08   672482
  8.265024e-02   5.486256e-05   5.887854e-04   6.533227e-08   705748
  8.468883e-02   5.639822e-05   5.884884e-04   6.538903e-08   740482
  8.673009e-02   5.786666e-05   5.901845e-04   6.546666e-08   779026
  8.877006e-02   5.923767e-05   5.875992e-04   6.573124e-08   812614
  9.081033e-02   6.074843e-05   5.902277e-04   6.577727e-08   854200
  9.285241e-02   6.221308e-05   5.887737e-04   6.597499e-08   890746
  9.489189e-02   6.366831e-05   5.888028e-04   6.590417e-08   930394
  9.693174e-02   6.522867e-05   5.888121e-04   6.629103e-08   970982
  9.897209e-02   6.674173e-05   5.890745e-04   6.636602e-08   1012600
  1.010137e-01   6.849091e-05   5.897237e-04   6.678196e-08   1055890
  1.030542e-01   7.028753e-05   5.884073e-04   6.738986e-08   1096630
  1.050933e-01   7.212218e-05   5.887890e-04   6.757530e-08   1141378
  1.071337e-01   7.426629e-05   5.890564e-04   6.829687e-08   1186552
  1.091740e-01   7.664947e-05   5.889981e-04   6.917081e-08   1231798
  1.112148e-01   7.903127e-05   5.893633e-04   7.006850e-08   1279234
  1.132559e-01   8.178201e-05   5.890093e-04   7.115808e-08   1325906
  1.152965e-01   8.460851e-05   5.891197e-04   7.226675e-08   1374352
  1.173364e-01   8.742190e-05   5.886007e-04   7.345240e-08   1421950
  1.193758e-01   9.072335e-05   5.890300e-04   7.483028e-08   1472962
  1.214157e-01   9.354702e-05   5.886064e-04   7.590352e-08   1522954
  1.234545e-01   9.644022e-05   5.884752e-04   7.695127e-08   1573804
  1.254965e-01   9.952539e-05   5.906693e-04   7.792221e-08   1632274
  1.275390e-01   1.024172e-04   5.886302e-04   7.905306e-08   1680226
  1.295769e-01   1.050399e-04   5.879889e-04   8.004378e-08   1732682
  1.316167e-01   1.075752e-04   5.894980e-04   8.038388e-08   1792204
  1.336589e-01   1.101926e-04   5.896575e-04   8.105152e-08   1848298
  1.356989e-01   1.122996e-04   5.883050e-04   8.163262e-08   1901050
  1.377383e-01   1.141543e-04   5.890297e-04   8.154187e-08   1961326
  1.397792e-01   1.157383e-04   5.892228e-04   8.160250e-08   2020312
  1.418209e-01   1.174859e-04   5.895741e-04   8.153233e-08   2080930
  1.438627e-01   1.187090e-04   5.893024e-04   8.115234e-08   2140390
  1.459026e-01   1.199124e-04   5.883405e-04   8.109412e-08   2198162
  1.479427e-01   1.208457e-04   5.893956e-04   8.036275e-08   2263864
  1.499842e-01   1.218824e-04   5.893769e-04   7.995922e-08   2326426
  1.520249e-01   1.227358e-04   5.889045e-04   7.947460e-08   2388550
  1.540650e-01   1.233702e-04   5.888570e-04   7.875403e-08   2453098
  1.561047e-01   1.243121e-04   5.886971e-04   7.839570e-08   2517592
  1.581449e-01   1.255134e-04   5.892905e-04   7.825420e-08   2586070
  1.601854e-01   1.264325e-04   5.889181e-04   7.769715e-08   2651842
  1.622257e-01   1.275560e-04   5.889579e-04   7.723474e-08   2720330
  1.642669e-01   1.289324e-04   5.894439e-04   7.731079e-08   2791156
  1.663078e-01   1.304969e-04   5.889934e-04   7.728288e-08   2858554
  1.683481e-01   1.321592e-04   5.890635e-04   7.725932e-08   2929594
  1.703877e-01   1.340281e-04   5.885431e-04   7.741697e-08   2998762
  1.724278e-01   1.359867e-04   5.891948e-04   7.766068e-08   3074188
  1.744675e-01   1.384143e-04   5.885376e-04   7.807809e-08   3143482
  1.765088e-01   1.405373e-04   5.900653e-04   7.826514e-08   3226186
  1.785498e-01   1.429835e-04   5.882615e-04   7.902782e-08   3291158
  1.805901e-01   1.454271e-04   5.897179e-04   7.920728e-08   3375112
  1.826317e-01   1.480518e-04   5.890290e-04   7.981701e-08   3447658
  1.846719e-01   1.504252e-04   5.889171e-04   8.022823e-08   3524626
  1.867120e-01   1.527933e-04   5.888543e-04   8.065601e-08   3602998
  1.887512e-01   1.551835e-04   5.883706e-04   8.100567e-08   3678592
  1.907908e-01   1.574006e-04   5.892546e-04   8.115909e-08   3764122
  1.928324e-01   1.593366e-04   5.894579e-04   8.135997e-08   3846598
  1.948727e-01   1.613943e-04   5.885077e-04   8.150557e-08   3922250
  1.969136e-01   1.629159e-04   5.896943e-04   8.145367e-08   4013032
  1.989552e-01   1.644347e-04   5.889700e-04   8.132276e-08   4091182
  2.009950e-01   1.657485e-04   5.887664e-04   8.127092e-08   4174282
  2.030353e-01   1.667883e-04   5.891040e-04   8.092053e-08   4261978
  2.050762e-01   1.675719e-04   5.892160e-04   8.043026e-08   4348624
  2.071163e-01   1.684878e-04   5.886637e-04   8.015849e-08   4431430
  2.091564e-01   1.688980e-04   5.892138e-04   7.958034e-08   4523290
  2.111972e-01   1.696098e-04   5.891043e-04   7.910854e-08   4611386
  2.132376e-01   1.702116e-04   5.888473e-04   7.865010e-08   4698814
  2.152782e-01   1.706355e-04   5.893426e-04   7.803995e-08   4792984
  2.173194e-01   1.710644e-04   5.892017e-04   7.750507e-08   4883194
  2.193596e-01   1.712036e-04   5.887755e-04   7.694308e-08   4971694
  2.214001e-01   1.717858e-04   5.893212e-04   7.644095e-08   5069434
  2.234405e-01   1.725043e-04   5.886957e-04   7.613464e-08   5157736
  2.254804e-01   1.731260e-04   5.891220e-04   7.577575e-08   5256202
  2.275212e-01   1.738089e-04   5.891252e-04   7.528754e-08   5351990
  2.295614e-01   1.746134e-04   5.887454e-04   7.495613e-08   5444914
  2.316024e-01   1.756757e-04   5.895775e-04   7.466883e-08   5550088
  2.336441e-01   1.768074e-04   5.892314e-04   7.455688e-08   5644774
  2.356844e-01   1.779495e-04   5.887291e-04   7.439572e-08   5739034
  2.377243e-01   1.792272e-04   5.889493e-04   7.435445e-08   5841154
  2.397648e-01   1.804646e-04   5.891188e-04   7.410707e-08   5943448
  2.418057e-01   1.819911e-04   5.891894e-04   7.421630e-08   6045670
  2.438457e-01   1.834766e-04   5.886738e-04   7.418907e-08   6142586
  2.458857e-01   1.846978e-04   5.890965e-04   7.401068e-08   6250738
  2.479269e-01   1.863233e-04   5.893339e-04   7.411776e-08   6357172
  2.499678e-01   1.876117e-04   5.890271e-04   7.397318e-08   6458506
  2.520084e-01   1.890313e-04   5.891472e-04   7.397670e-08   6566290
  2.540484e-01   1.899860e-04   5.886483e-04   7.379265e-08   6667414
  2.560881e-01   1.911356e-04   5.889729e-04   7.355861e-08   6778336
  2.581289e-01   1.924553e-04   5.893065e-04   7.349605e-08   6890218
  2.601690e-01   1.933149e-04   5.886464e-04   7.331773e-08   6992306
  2.622097e-01   1.940771e-04   5.895050e-04   7.303513e-08   7113454
  2.642508e-01   1.947471e-04   5.888931e-04   7.275502e-08   7216216
  2.662907e-01   1.952767e-04   5.889220e-04   7.228478e-08   7328218
  2.683311e-01   1.956216e-04   5.891504e-04   7.196462e-08   7444414
  2.703714e-01   1.960105e-04   5.887477e-04   7.158188e-08   7553290
  2.724122e-01   1.961762e-04   5.894442e-04   7.099500e-08   7676368
  2.744529e-01   1.965472e-04   5.888427e-04   7.077892e-08   7783150
  2.764932e-01   1.966076e-04   5.891771e-04   7.014891e-08   7904570
  2.785337e-01   1.965559e-04   5.888377e-04   6.974032e-08   8017570
  2.805747e-01   1.967020e-04   5.894749e-04   6.921405e-08   8143840
  2.826158e-01   1.968849e-04   5.889589e-04   6.878190e-08   8255134
  2.846555e-01   1.967779e-04   5.886996e-04   6.830923e-08   8371450
  2.866957e-01   1.969615e-04   5.891278e-04   6.786004e-08   8498578
  2.887371e-01   1.970947e-04   5.893995e-04   6.740104e-08   8623180
  2.907783e-01   1.972267e-04   5.891794e-04   6.699599e-08   8742034
  2.928185e-01   1.973380e-04   5.887409e-04   6.661663e-08   8859194
  2.948582e-01   1.977474e-04   5.888043e-04   6.629573e-08   8984386
  2.968984e-01   1.980714e-04   5.889953e-04   6.592240e-08   9111652
  2.989394e-01   1.984041e-04   5.894313e-04   6.554320e-08   9243322
  3.009801e-01   1.987466e-04   5.888434e-04   6.533709e-08   9361378
  3.030204e-01   1.992878e-04   5.890316e-04   6.507642e-08   9491998
  3.050606e-01   1.997196e-04   5.889315e-04   6.474505e-08   9618016
  3.071010e-01   2.001739e-04   5.891205e-04   6.447143e-08   9750178
  3.091413e-01   2.004370e-04   5.888404e-04   6.410422e-08   9875558
  3.111820e-01   2.012172e-04   5.893640e-04   6.396482e-08   10015834
  3.132223e-01   2.013212e-04   5.885801e-04   6.363146e-08   10133344
  3.152627e-01   2.018541e-04   5.895529e-04   6.334068e-08   10282522
  3.173040e-01   2.022180e-04   5.889812e-04   6.309645e-08   10406974
  3.193437e-01   2.023292e-04   5.886096e-04   6.273360e-08   10534378
  3.213841e-01   2.027764e-04   5.894405e-04   6.240317e-08   10684456
  3.234254e-01   2.030835e-04   5.890917e-04   6.213382e-08   10813894
  3.254654e-01   2.031553e-04   5.887488e-04   6.179939e-08   10944626
  3.275058e-01   2.032399e-04   5.892300e-04   6.146992e-08   11091802
  3.295466e-01   2.032797e-04   5.889694e-04   6.110423e-08   11224756
  3.315871e-01   2.031065e-04   5.891399e-04   6.065590e-08   11367730
  3.336279e-01   2.030651e-04   5.891097e-04   6.027827e-08   11507890
  3.356680e-01   2.029995e-04   5.886912e-04   5.993972e-08   11640658
  3.377084e-01   2.027765e-04   5.893412e-04   5.951953e-08   11795380
  3.397495e-01   2.025085e-04   5.891216e-04   5.905087e-08   11933434
  3.417900e-01   2.022541e-04   5.889963e-04   5.867275e-08   12074954
  3.438308e-01   2.021865e-04   5.892532e-04   5.832156e-08   12225142
  3.458709e-01   2.018038e-04   5.885745e-04   5.791400e-08   12356104
  3.479106e-01   2.014993e-04   5.891058e-04   5.744134e-08   12513442
  3.499516e-01   2.013090e-04   5.892873e-04   5.705242e-08   12664810
  3.519928e-01   2.008350e-04   5.891937e-04   5.663527e-08   12811246
  3.540334e-01   2.005698e-04   5.889181e-04   5.620520e-08   12953536
  3.560735e-01   2.004656e-04   5.890044e-04   5.592088e-08   13105042
  3.581140e-01   2.000115e-04   5.891192e-04   5.542822e-08   13258670
  3.601546e-01   1.999595e-04   5.890325e-04   5.516331e-08   13408738
  3.621953e-01   1.997545e-04   5.890899e-04   5.478840e-08   13562320
  3.642355e-01   1.995618e-04   5.888450e-04   5.447156e-08   13709062
  3.662757e-01   1.992325e-04   5.891202e-04   5.406125e-08   13870258
  3.683171e-01   1.990446e-04   5.894186e-04   5.371153e-08   14032714
  3.703575e-01   1.988757e-04   5.886241e-04   5.342377e-08   14169232
  3.723976e-01   1.986740e-04   5.891956e-04   5.304830e-08   14339422
  3.744381e-01   1.985097e-04   5.888919e-04   5.275183e-08   14489330
  3.764785e-01   1.981069e-04   5.891282e-04   5.234866e-08   14654458
  3.785190e-01   1.978749e-04   5.889293e-04   5.204357e-08   14808292
  3.805593e-01   1.977490e-04   5.890179e-04   5.171282e-08   14970130
  3.825997e-01   1.976029e-04   5.890254e-04   5.143660e-08   15131626
  3.846399e-01   1.971554e-04   5.888648e-04   5.104990e-08   15289198
  3.866807e-01   1.968725e-04   5.894136e-04   5.068292e-08   15466552
  3.887217e-01   1.965138e-04   5.889267e-04   5.038286e-08   15616714
  3.907617e-01   1.962388e-04   5.889009e-04   5.005641e-08   15780506
  3.928022e-01   1.957720e-04   5.891699e-04   4.969108e-08   15953542
  3.948433e-01   1.954733e-04   5.892495e-04   4.934255e-08   16121296
  3.968834e-01   1.949913e-04   5.886227e-04   4.903081e-08   16270762
  3.989235e-01   1.943418e-04   5.892919e-04   4.856701e-08   16457182
  4.009646e-01   1.940684e-04   5.891739e-04   4.824331e-08   16623562
  4.030052e-01   1.934012e-04   5.889160e-04   4.788230e-08   16785784
  4.050455e-01   1.929632e-04   5.890644e-04   4.754782e-08   16959370
  4.070861e-01   1.924134e-04   5.891235e-04   4.718623e-08   17132774
  4.091266e-01   1.918318e-04   5.889569e-04   4.683954e-08   17300602
  4.111672e-01   1.911111e-04   5.891834e-04   4.643899e-08   17480656
  4.132078e-01   1.906923e-04   5.889644e-04   4.612014e-08   17647558
  4.152481e-01   1.901186e-04   5.890172e-04   4.578548e-08   17823778
  4.172887e-01   1.896810e-04   5.890581e-04   4.541770e-08   18001594
  4.193290e-01   1.891516e-04   5.888841e-04   4.511734e-08   18172300
  4.213694e-01   1.883942e-04   5.891306e-04   4.474814e-08   18356770
  4.234105e-01   1.878655e-04   5.893313e-04   4.440929e-08   18541082
  4.254516e-01   1.872822e-04   5.891095e-04   4.406228e-08   18713914
  4.274917e-01   1.867099e-04   5.886533e-04   4.374926e-08   18879742
  4.295318e-01   1.861254e-04   5.892187e-04   4.339539e-08   19077592
  4.315727e-01   1.855181e-04   5.891074e-04   4.304366e-08   19255474
  4.336133e-01   1.849283e-04   5.890497e-04   4.272028e-08   19436278
  4.356531e-01   1.843921e-04   5.886327e-04   4.245751e-08   19605994
  4.376936e-01   1.838815e-04   5.894559e-04   4.212322e-08   19817344
  4.397347e-01   1.833840e-04   5.889775e-04   4.182772e-08   19985702
  4.417750e-01   1.826258e-04   5.890630e-04   4.151136e-08   20175730
  4.438152e-01   1.820231e-04   5.887860e-04   4.118596e-08   20352682
  4.458557e-01   1.814638e-04   5.893597e-04   4.087730e-08   20559616
  4.478969e-01   1.808161e-04   5.891648e-04   4.054953e-08   20741518
  4.499369e-01   1.803157e-04   5.886230e-04   4.028935e-08   20912026
  4.519768e-01   1.796434e-04   5.891225e-04   3.996340e-08   21121018
  4.540176e-01   1.790824e-04   5.890883e-04   3.966188e-08   21310012
  4.560579e-01   1.783563e-04   5.889301e-04   3.936090e-08   21496154
  4.580989e-01   1.777138e-04   5.893557e-04   3.904038e-08   21705946
  4.601398e-01   1.770146e-04   5.889070e-04   3.872609e-08   21882562
  4.621802e-01   1.763804e-04   5.891458e-04   3.842586e-08   22085428
  4.642214e-01   1.757378e-04   5.893143e-04   3.814283e-08   22287106
  4.662615e-01   1.749485e-04   5.885500e-04   3.781562e-08   22455010
  4.683013e-01   1.743880e-04   5.890571e-04   3.757089e-08   22671694
  4.703421e-01   1.735298e-04   5.892012e-04   3.722017e-08   22874368
  4.723830e-01   1.729813e-04   5.891203e-04   3.695835e-08   23070146
  4.744235e-01   1.721660e-04   5.889653e-04   3.665382e-08   23264038
  4.764637e-01   1.713689e-04   5.889570e-04   3.634686e-08   23464210
  4.785045e-01   1.707136e-04   5.893101e-04   3.604682e-08   23679208
  4.805453e-01   1.699839e-04   5.889894e-04   3.574913e-08   23868658
  4.825856e-01   1.692459e-04   5.889440e-04   3.545826e-08   24070582
  4.846259e-01   1.685098e-04   5.890549e-04   3.516855e-08   24278842
  4.866664e-01   1.678241e-04   5.890268e-04   3.490970e-08   24482272
  4.887069e-01   1.671136e-04   5.890750e-04   3.463420e-08   24689510
  4.907474e-01   1.663489e-04   5.890195e-04   3.433490e-08   24894634
  4.927881e-01   1.656926e-04   5.891565e-04   3.406476e-08   25108474
  4.948289e-01   1.648879e-04   5.890919e-04   3.379693e-08   25313116
  4.968692e-01   1.641785e-04   5.889389e-04   3.352327e-08   25515970
  4.989095e-01   1.633958e-04   5.889848e-04   3.323603e-08   25727962
  5.009501e-01   1.627063e-04   5.892016e-04   3.296471e-08   25948954
  5.029911e-01   1.619457e-04   5.891242e-04   3.269549e-08   26157220
  5.050312e-01   1.612076e-04   5.887329e-04   3.243572e-08   26351546
  5.070713e-01   1.604563e-04   5.891599e-04   3.216927e-08   26585314
  5.091124e-01   1.597456e-04   5.891783e-04   3.190635e-08   26800630
  5.111529e-01   1.590026e-04   5.889142e-04   3.166174e-08   27003376
  5.131928e-01   1.583070e-04   5.887939e-04   3.140432e-08   27213202
  5.152333e-01   1.575014e-04   5.893371e-04   3.112818e-08   27455194
  5.172745e-01   1.567334e-04   5.891605e-04   3.087520e-08   27666070
  5.193150e-01   1.560678e-04   5.888642e-04   3.064442e-08   27870280
  5.213548e-01   1.553010e-04   5.888416e-04   3.038851e-08   28088090
  5.233952e-01   1.545823e-04   5.892064e-04   3.013993e-08   28326262
  5.254363e-01   1.538309e-04   5.891855e-04   2.988369e-08   28546906
  5.274771e-01   1.530923e-04   5.890514e-04   2.966273e-08   28762552
  5.295175e-01   1.522943e-04   5.889643e-04   2.940956e-08   28979734
  5.315579e-01   1.515089e-04   5.891116e-04   2.913744e-08   29211106
  5.335984e-01   1.507641e-04   5.890058e-04   2.890163e-08   29431738
  5.356386e-01   1.500331e-04   5.888449e-04   2.867829e-08   29648776
  5.376788e-01   1.493117e-04   5.891295e-04   2.844898e-08   29888654
  5.397198e-01   1.485099e-04   5.892792e-04   2.818559e-08   30123490
  5.417605e-01   1.477630e-04   5.889187e-04   2.796313e-08   30334570
  5.438008e-01   1.470141e-04   5.889866e-04   2.772340e-08   30566524
  5.458411e-01   1.462215e-04   5.890413e-04   2.749144e-08   30798370
  5.478823e-01   1.454671e-04   5.894562e-04   2.724412e-08   31052026
  5.499229e-01   1.446874e-04   5.886551e-04   2.703946e-08   31241782
  5.519630e-01   1.439224e-04   5.891853e-04   2.679134e-08   31502128
  5.540036e-01   1.432154e-04   5.889524e-04   2.659048e-08   31721474
  5.560439e-01   1.424069e-04   5.890206e-04   2.635459e-08   31960210
  5.580845e-01   1.416211e-04   5.890910e-04   2.612526e-08   32200582
  5.601251e-01   1.409378e-04   5.889897e-04   2.592196e-08   32429512
  5.621660e-01   1.402070e-04   5.893423e-04   2.569372e-08   32685226
  5.642068e-01   1.394174e-04   5.889439e-04   2.548240e-08   32900830
  5.662468e-01   1.386790e-04   5.888631e-04   2.526232e-08   33135682
  5.682871e-01   1.379208e-04   5.890598e-04   2.506951e-08   33385288
  5.703276e-01   1.371413e-04   5.890887e-04   2.483306e-08   33625706
  5.723684e-01   1.364215e-04   5.891781e-04   2.462634e-08   33873550
  5.744087e-01   1.356531e-04   5.887629e-04   2.443575e-08   34091770
  5.764491e-01   1.349477e-04   5.892514e-04   2.424008e-08   34362160
