# power spectrum of zeta (dimensionless)
# redshift z=29.789116
# k              Pk             sigma(k)       sigma(Pk)      count
  1.554082e-03   2.527531e-22   3.849967e-04   2.987760e-23   146
  3.315891e-03   3.414977e-21   5.645617e-04   1.292110e-22   1042
  5.255560e-03   1.602594e-20   5.631710e-04   3.412328e-22   2698
  7.226238e-03   4.896746e-20   5.714963e-04   7.251877e-22   5206
  9.236952e-03   1.136451e-19   5.879031e-04   1.309446e-21   8752
  1.128500e-02   2.231512e-19   5.950186e-04   1.993212e-21   13258
  1.332029e-02   3.878030e-19   5.812860e-04   2.948962e-21   18070
  1.533799e-02   6.010187e-19   5.833601e-04   3.923380e-21   24050
  1.738769e-02   8.712361e-19   5.989399e-04   4.943256e-21   31720
  1.943477e-02   1.205013e-18   5.849109e-04   6.123617e-21   38722
  2.146405e-02   1.570595e-18   5.862639e-04   7.317780e-21   47398
  2.349979e-02   1.994828e-18   5.882944e-04   8.369580e-21   56986
  2.554151e-02   2.469828e-18   5.907046e-04   9.602267e-21   67552
  2.758014e-02   3.006825e-18   5.872674e-04   1.077865e-20   78310
  2.961557e-02   3.491932e-18   5.882808e-04   1.170031e-20   90514
  3.164924e-02   4.080730e-18   5.857631e-04   1.285824e-20   102938
  3.368563e-02   4.604091e-18   5.901325e-04   1.347644e-20   117412
  3.572860e-02   5.276222e-18   5.900212e-04   1.451645e-20   132106
  3.776869e-02   5.905143e-18   5.879385e-04   1.541684e-20   147154
  3.980581e-02   6.528392e-18   5.881164e-04   1.616159e-20   163522
  4.184971e-02   7.237424e-18   5.917380e-04   1.699500e-20   181804
  4.388716e-02   7.964478e-18   5.852792e-04   1.805228e-20   197722
  4.592521e-02   8.742685e-18   5.913571e-04   1.868203e-20   218866
  4.796858e-02   9.683376e-18   5.883333e-04   1.986623e-20   237542
  5.000645e-02   1.054415e-17   5.882751e-04   2.077865e-20   258136
  5.204613e-02   1.151580e-17   5.892119e-04   2.182327e-20   280066
  5.408484e-02   1.250463e-17   5.879532e-04   2.284522e-20   301774
  5.612494e-02   1.361946e-17   5.897386e-04   2.382088e-20   326050
  5.816725e-02   1.483766e-17   5.892357e-04   2.517851e-20   349792
  6.020894e-02   1.608103e-17   5.898220e-04   2.637558e-20   375154
  6.224878e-02   1.732527e-17   5.878390e-04   2.756028e-20   399742
  6.428502e-02   1.872769e-17   5.877282e-04   2.870947e-20   426266
  6.632420e-02   2.000373e-17   5.892967e-04   2.971029e-20   454960
  6.836448e-02   2.136440e-17   5.887382e-04   3.077333e-20   482734
  7.040483e-02   2.273520e-17   5.895060e-04   3.177524e-20   512746
  7.244666e-02   2.407380e-17   5.892082e-04   3.268303e-20   542746
  7.448833e-02   2.517570e-17   5.895081e-04   3.324333e-20   573952
  7.652873e-02   2.639862e-17   5.886192e-04   3.414628e-20   604918
  7.856782e-02   2.765668e-17   5.887181e-04   3.467111e-20   637666
  8.060887e-02   2.865621e-17   5.897344e-04   3.488237e-20   672482
  8.265024e-02   2.979590e-17   5.887854e-04   3.547231e-20   705748
  8.468883e-02   3.067951e-17   5.884884e-04   3.557242e-20   740482
  8.673009e-02   3.155271e-17   5.901845e-04   3.570278e-20   779026
  8.877006e-02   3.235340e-17   5.875992e-04   3.588873e-20   812614
  9.081033e-02   3.322626e-17   5.902277e-04   3.597599e-20   854200
  9.285241e-02   3.411234e-17   5.887737e-04   3.616174e-20   890746
  9.489189e-02   3.495615e-17   5.888028e-04   3.617947e-20   930394
  9.693174e-02   3.586722e-17   5.888121e-04   3.647402e-20   970982
  9.897209e-02   3.678546e-17   5.890745e-04   3.657999e-20   1012600
  1.010137e-01   3.775530e-17   5.897237e-04   3.680809e-20   1055890
  1.030542e-01   3.883066e-17   5.884073e-04   3.725413e-20   1096630
  1.050933e-01   3.992256e-17   5.887890e-04   3.741353e-20   1141378
  1.071337e-01   4.118142e-17   5.890564e-04   3.786556e-20   1186552
  1.091740e-01   4.254591e-17   5.889981e-04   3.838578e-20   1231798
  1.112148e-01   4.397390e-17   5.893633e-04   3.898175e-20   1279234
  1.132559e-01   4.558022e-17   5.890093e-04   3.965617e-20   1325906
  1.152965e-01   4.725188e-17   5.891197e-04   4.037450e-20   1374352
  1.173364e-01   4.890258e-17   5.886007e-04   4.110145e-20   1421950
  1.193758e-01   5.082664e-17   5.890300e-04   4.193397e-20   1472962
  1.214157e-01   5.255422e-17   5.886064e-04   4.262260e-20   1522954
  1.234545e-01   5.431000e-17   5.884752e-04   4.337289e-20   1573804
  1.254965e-01   5.617722e-17   5.906693e-04   4.398486e-20   1632274
  1.275390e-01   5.792216e-17   5.886302e-04   4.469474e-20   1680226
  1.295769e-01   5.956131e-17   5.879889e-04   4.536200e-20   1732682
  1.316167e-01   6.120863e-17   5.894980e-04   4.573250e-20   1792204
  1.336589e-01   6.278135e-17   5.896575e-04   4.617686e-20   1848298
  1.356989e-01   6.412959e-17   5.883050e-04   4.664977e-20   1901050
  1.377383e-01   6.532386e-17   5.890297e-04   4.661663e-20   1961326
  1.397792e-01   6.640543e-17   5.892228e-04   4.683143e-20   2020312
  1.418209e-01   6.757639e-17   5.895741e-04   4.687798e-20   2080930
  1.438627e-01   6.843273e-17   5.893024e-04   4.681463e-20   2140390
  1.459026e-01   6.929709e-17   5.883405e-04   4.682583e-20   2198162
  1.479427e-01   6.997353e-17   5.893956e-04   4.652032e-20   2263864
  1.499842e-01   7.070838e-17   5.893769e-04   4.634948e-20   2326426
  1.520249e-01   7.134502e-17   5.889045e-04   4.613503e-20   2388550
  1.540650e-01   7.190327e-17   5.888570e-04   4.585946e-20   2453098
  1.561047e-01   7.261064e-17   5.886971e-04   4.576075e-20   2517592
  1.581449e-01   7.346412e-17   5.892905e-04   4.579481e-20   2586070
  1.601854e-01   7.414387e-17   5.889181e-04   4.554468e-20   2651842
  1.622257e-01   7.498263e-17   5.889579e-04   4.533953e-20   2720330
  1.642669e-01   7.596799e-17   5.894439e-04   4.553533e-20   2791156
  1.663078e-01   7.707592e-17   5.889934e-04   4.562930e-20   2858554
  1.683481e-01   7.824847e-17   5.890635e-04   4.572395e-20   2929594
  1.703877e-01   7.957674e-17   5.885431e-04   4.594342e-20   2998762
  1.724278e-01   8.095868e-17   5.891948e-04   4.620967e-20   3074188
  1.744675e-01   8.264331e-17   5.885376e-04   4.657970e-20   3143482
  1.765088e-01   8.423670e-17   5.900653e-04   4.687924e-20   3226186
  1.785498e-01   8.589349e-17   5.882615e-04   4.746725e-20   3291158
  1.805901e-01   8.770959e-17   5.897179e-04   4.776132e-20   3375112
  1.826317e-01   8.961521e-17   5.890290e-04   4.829738e-20   3447658
  1.846719e-01   9.134478e-17   5.889171e-04   4.868827e-20   3524626
  1.867120e-01   9.313107e-17   5.888543e-04   4.913882e-20   3602998
  1.887512e-01   9.490167e-17   5.883706e-04   4.948652e-20   3678592
  1.907908e-01   9.652140e-17   5.892546e-04   4.974036e-20   3764122
  1.928324e-01   9.814703e-17   5.894579e-04   5.007125e-20   3846598
  1.948727e-01   9.975639e-17   5.885077e-04   5.034594e-20   3922250
  1.969136e-01   1.010737e-16   5.896943e-04   5.052886e-20   4013032
  1.989552e-01   1.022870e-16   5.889700e-04   5.053161e-20   4091182
  2.009950e-01   1.034155e-16   5.887664e-04   5.066314e-20   4174282
  2.030353e-01   1.044478e-16   5.891040e-04   5.060538e-20   4261978
  2.050762e-01   1.052498e-16   5.892160e-04   5.045416e-20   4348624
  2.071163e-01   1.060860e-16   5.886637e-04   5.038884e-20   4431430
  2.091564e-01   1.067074e-16   5.892138e-04   5.020577e-20   4523290
  2.111972e-01   1.074249e-16   5.891043e-04   5.007427e-20   4611386
  2.132376e-01   1.080543e-16   5.888473e-04   4.990400e-20   4698814
  2.152782e-01   1.086397e-16   5.893426e-04   4.960919e-20   4792984
  2.173194e-01   1.092700e-16   5.892017e-04   4.942817e-20   4883194
  2.193596e-01   1.096649e-16   5.887755e-04   4.921314e-20   4971694
  2.214001e-01   1.102755e-16   5.893212e-04   4.900091e-20   5069434
  2.234405e-01   1.111539e-16   5.886957e-04   4.896112e-20   5157736
  2.254804e-01   1.118880e-16   5.891220e-04   4.889845e-20   5256202
  2.275212e-01   1.126773e-16   5.891252e-04   4.875327e-20   5351990
  2.295614e-01   1.136308e-16   5.887454e-04   4.870600e-20   5444914
  2.316024e-01   1.146734e-16   5.895775e-04   4.865759e-20   5550088
  2.336441e-01   1.158475e-16   5.892314e-04   4.872906e-20   5644774
  2.356844e-01   1.169816e-16   5.887291e-04   4.885094e-20   5739034
  2.377243e-01   1.183849e-16   5.889493e-04   4.901264e-20   5841154
  2.397648e-01   1.196945e-16   5.891188e-04   4.909261e-20   5943448
  2.418057e-01   1.211418e-16   5.891894e-04   4.926542e-20   6045670
  2.438457e-01   1.227454e-16   5.886738e-04   4.952508e-20   6142586
  2.458857e-01   1.241764e-16   5.890965e-04   4.964551e-20   6250738
  2.479269e-01   1.256791e-16   5.893339e-04   4.986512e-20   6357172
  2.499678e-01   1.271255e-16   5.890271e-04   5.002171e-20   6458506
  2.520084e-01   1.286515e-16   5.891472e-04   5.019511e-20   6566290
  2.540484e-01   1.299308e-16   5.886483e-04   5.035494e-20   6667414
  2.560881e-01   1.313044e-16   5.889729e-04   5.040121e-20   6778336
  2.581289e-01   1.327139e-16   5.893065e-04   5.054406e-20   6890218
  2.601690e-01   1.339213e-16   5.886464e-04   5.065401e-20   6992306
  2.622097e-01   1.349948e-16   5.895050e-04   5.066455e-20   7113454
  2.642508e-01   1.361135e-16   5.888931e-04   5.070613e-20   7216216
  2.662907e-01   1.369637e-16   5.889220e-04   5.056323e-20   7328218
  2.683311e-01   1.377999e-16   5.891504e-04   5.052768e-20   7444414
  2.703714e-01   1.384916e-16   5.887477e-04   5.042135e-20   7553290
  2.724122e-01   1.392367e-16   5.894442e-04   5.026637e-20   7676368
  2.744529e-01   1.399982e-16   5.888427e-04   5.021939e-20   7783150
  2.764932e-01   1.405061e-16   5.891771e-04   4.998868e-20   7904570
  2.785337e-01   1.410039e-16   5.888377e-04   4.983692e-20   8017570
  2.805747e-01   1.416192e-16   5.894749e-04   4.963878e-20   8143840
  2.826158e-01   1.422594e-16   5.889589e-04   4.954064e-20   8255134
  2.846555e-01   1.427324e-16   5.886996e-04   4.934075e-20   8371450
  2.866957e-01   1.433660e-16   5.891278e-04   4.922126e-20   8498578
  2.887371e-01   1.440693e-16   5.893995e-04   4.906939e-20   8623180
  2.907783e-01   1.447865e-16   5.891794e-04   4.900257e-20   8742034
  2.928185e-01   1.455392e-16   5.887409e-04   4.892719e-20   8859194
  2.948582e-01   1.462598e-16   5.888043e-04   4.881997e-20   8984386
  2.968984e-01   1.472318e-16   5.889953e-04   4.879516e-20   9111652
  2.989394e-01   1.481530e-16   5.894313e-04   4.873398e-20   9243322
  3.009801e-01   1.490849e-16   5.888434e-04   4.876536e-20   9361378
  3.030204e-01   1.501350e-16   5.890316e-04   4.878278e-20   9491998
  3.050606e-01   1.512855e-16   5.889315e-04   4.879349e-20   9618016
  3.071010e-01   1.524151e-16   5.891205e-04   4.885883e-20   9750178
  3.091413e-01   1.533095e-16   5.888404e-04   4.879814e-20   9875558
  3.111820e-01   1.547593e-16   5.893640e-04   4.891817e-20   10015834
  3.132223e-01   1.556394e-16   5.885801e-04   4.892971e-20   10133344
  3.152627e-01   1.568177e-16   5.895529e-04   4.894868e-20   10282522
  3.173040e-01   1.579641e-16   5.889812e-04   4.900396e-20   10406974
  3.193437e-01   1.588506e-16   5.886096e-04   4.898953e-20   10534378
  3.213841e-01   1.599448e-16   5.894405e-04   4.892225e-20   10684456
  3.234254e-01   1.610266e-16   5.890917e-04   4.896026e-20   10813894
  3.254654e-01   1.618828e-16   5.887488e-04   4.897378e-20   10944626
  3.275058e-01   1.627477e-16   5.892300e-04   4.890453e-20   11091802
  3.295466e-01   1.635421e-16   5.889694e-04   4.884291e-20   11224756
  3.315871e-01   1.642101e-16   5.891399e-04   4.869790e-20   11367730
  3.336279e-01   1.650464e-16   5.891097e-04   4.866351e-20   11507890
  3.356680e-01   1.657276e-16   5.886912e-04   4.858855e-20   11640658
  3.377084e-01   1.663252e-16   5.893412e-04   4.850056e-20   11795380
  3.397495e-01   1.668406e-16   5.891216e-04   4.831309e-20   11933434
  3.417900e-01   1.673903e-16   5.889963e-04   4.820881e-20   12074954
  3.438308e-01   1.680342e-16   5.892532e-04   4.807865e-20   12225142
  3.458709e-01   1.685609e-16   5.885745e-04   4.798813e-20   12356104
  3.479106e-01   1.690566e-16   5.891058e-04   4.781262e-20   12513442
  3.499516e-01   1.697152e-16   5.892873e-04   4.770441e-20   12664810
  3.519928e-01   1.701211e-16   5.891937e-04   4.754783e-20   12811246
  3.540334e-01   1.707553e-16   5.889181e-04   4.743766e-20   12953536
  3.560735e-01   1.714171e-16   5.890044e-04   4.740763e-20   13105042
  3.581140e-01   1.719396e-16   5.891192e-04   4.722636e-20   13258670
  3.601546e-01   1.726735e-16   5.890325e-04   4.720570e-20   13408738
  3.621953e-01   1.733278e-16   5.890899e-04   4.708488e-20   13562320
  3.642355e-01   1.741053e-16   5.888450e-04   4.708890e-20   13709062
  3.662757e-01   1.747196e-16   5.891202e-04   4.690682e-20   13870258
  3.683171e-01   1.754763e-16   5.894186e-04   4.686800e-20   14032714
  3.703575e-01   1.763180e-16   5.886241e-04   4.688783e-20   14169232
  3.723976e-01   1.771444e-16   5.891956e-04   4.682727e-20   14339422
  3.744381e-01   1.778605e-16   5.888919e-04   4.674861e-20   14489330
  3.764785e-01   1.786500e-16   5.891282e-04   4.667855e-20   14654458
  3.785190e-01   1.794661e-16   5.889293e-04   4.670489e-20   14808292
  3.805593e-01   1.802587e-16   5.890179e-04   4.660769e-20   14970130
  3.825997e-01   1.811138e-16   5.890254e-04   4.659618e-20   15131626
  3.846399e-01   1.818388e-16   5.888648e-04   4.653933e-20   15289198
  3.866807e-01   1.826475e-16   5.894136e-04   4.647436e-20   15466552
  3.887217e-01   1.832470e-16   5.889267e-04   4.639204e-20   15616714
  3.907617e-01   1.839149e-16   5.889009e-04   4.635090e-20   15780506
  3.928022e-01   1.845532e-16   5.891699e-04   4.624886e-20   15953542
  3.948433e-01   1.853060e-16   5.892495e-04   4.617169e-20   16121296
  3.968834e-01   1.858311e-16   5.886227e-04   4.612732e-20   16270762
  3.989235e-01   1.862551e-16   5.892919e-04   4.595277e-20   16457182
  4.009646e-01   1.868909e-16   5.891739e-04   4.586112e-20   16623562
  4.030052e-01   1.873338e-16   5.889160e-04   4.573670e-20   16785784
  4.050455e-01   1.879697e-16   5.890644e-04   4.566994e-20   16959370
  4.070861e-01   1.884378e-16   5.891235e-04   4.555299e-20   17132774
  4.091266e-01   1.886936e-16   5.889569e-04   4.541700e-20   17300602
  4.111672e-01   1.891326e-16   5.891834e-04   4.525608e-20   17480656
  4.132078e-01   1.896598e-16   5.889644e-04   4.518915e-20   17647558
  4.152481e-01   1.901192e-16   5.890172e-04   4.507514e-20   17823778
  4.172887e-01   1.907587e-16   5.890581e-04   4.497187e-20   18001594
  4.193290e-01   1.911784e-16   5.888841e-04   4.486688e-20   18172300
  4.213694e-01   1.915311e-16   5.891306e-04   4.474973e-20   18356770
  4.234105e-01   1.920346e-16   5.893313e-04   4.465698e-20   18541082
  4.254516e-01   1.925488e-16   5.891095e-04   4.453397e-20   18713914
  4.274917e-01   1.930134e-16   5.886533e-04   4.447440e-20   18879742
  4.295318e-01   1.934522e-16   5.892187e-04   4.431742e-20   19077592
  4.315727e-01   1.940196e-16   5.891074e-04   4.421252e-20   19255474
  4.336133e-01   1.945033e-16   5.890497e-04   4.413194e-20   19436278
  4.356531e-01   1.950795e-16   5.886327e-04   4.409961e-20   19605994
  4.376936e-01   1.956372e-16   5.894559e-04   4.399577e-20   19817344
  4.397347e-01   1.962785e-16   5.889775e-04   4.391773e-20   19985702
  4.417750e-01   1.965323e-16   5.890630e-04   4.378499e-20   20175730
  4.438152e-01   1.971281e-16   5.887860e-04   4.372803e-20   20352682
  4.458557e-01   1.977424e-16   5.893597e-04   4.366069e-20   20559616
  4.478969e-01   1.981965e-16   5.891648e-04   4.355345e-20   20741518
  4.499369e-01   1.988065e-16   5.886230e-04   4.350700e-20   20912026
  4.519768e-01   1.992044e-16   5.891225e-04   4.337322e-20   21121018
  4.540176e-01   1.996828e-16   5.890883e-04   4.329904e-20   21310012
  4.560579e-01   2.001497e-16   5.889301e-04   4.321373e-20   21496154
  4.580989e-01   2.006429e-16   5.893557e-04   4.310168e-20   21705946
  4.601398e-01   2.010332e-16   5.889070e-04   4.298626e-20   21882562
  4.621802e-01   2.014730e-16   5.891458e-04   4.290317e-20   22085428
  4.642214e-01   2.018713e-16   5.893143e-04   4.280169e-20   22287106
  4.662615e-01   2.021780e-16   5.885500e-04   4.271833e-20   22455010
  4.683013e-01   2.027206e-16   5.890571e-04   4.262674e-20   22671694
  4.703421e-01   2.029633e-16   5.892012e-04   4.248036e-20   22874368
  4.723830e-01   2.033754e-16   5.891203e-04   4.239773e-20   23070146
  4.744235e-01   2.037369e-16   5.889653e-04   4.230618e-20   23264038
  4.764637e-01   2.040312e-16   5.889570e-04   4.216169e-20   23464210
  4.785045e-01   2.043415e-16   5.893101e-04   4.202715e-20   23679208
  4.805453e-01   2.047029e-16   5.889894e-04   4.195107e-20   23868658
  4.825856e-01   2.048787e-16   5.889440e-04   4.181911e-20   24070582
  4.846259e-01   2.053418e-16   5.890549e-04   4.171689e-20   24278842
  4.866664e-01   2.055276e-16   5.890268e-04   4.159183e-20   24482272
  4.887069e-01   2.058279e-16   5.890750e-04   4.148162e-20   24689510
  4.907474e-01   2.062427e-16   5.890195e-04   4.139259e-20   24894634
  4.927881e-01   2.066056e-16   5.891565e-04   4.128847e-20   25108474
  4.948289e-01   2.067670e-16   5.890919e-04   4.113834e-20   25313116
  4.968692e-01   2.071956e-16   5.889389e-04   4.107769e-20   25515970
  4.989095e-01   2.075371e-16   5.889848e-04   4.095307e-20   25727962
  5.009501e-01   2.077758e-16   5.892016e-04   4.083732e-20   25948954
  5.029911e-01   2.081173e-16   5.891242e-04   4.075063e-20   26157220
  5.050312e-01   2.084728e-16   5.887329e-04   4.066515e-20   26351546
  5.070713e-01   2.088443e-16   5.891599e-04   4.057344e-20   26585314
  5.091124e-01   2.091409e-16   5.891783e-04   4.045193e-20   26800630
  5.111529e-01   2.094204e-16   5.889142e-04   4.036824e-20   27003376
  5.131928e-01   2.096795e-16   5.887939e-04   4.027020e-20   27213202
  5.152333e-01   2.098881e-16   5.893371e-04   4.011500e-20   27455194
  5.172745e-01   2.102424e-16   5.891605e-04   4.002536e-20   27666070
  5.193150e-01   2.106933e-16   5.888642e-04   3.995586e-20   27870280
  5.213548e-01   2.107597e-16   5.888416e-04   3.981497e-20   28088090
  5.233952e-01   2.110387e-16   5.892064e-04   3.970594e-20   28326262
  5.254363e-01   2.114540e-16   5.891855e-04   3.962665e-20   28546906
  5.274771e-01   2.116709e-16   5.890514e-04   3.952953e-20   28762552
  5.295175e-01   2.119076e-16   5.889643e-04   3.943724e-20   28979734
  5.315579e-01   2.119921e-16   5.891116e-04   3.928623e-20   29211106
  5.335984e-01   2.123505e-16   5.890058e-04   3.921023e-20   29431738
  5.356386e-01   2.126033e-16   5.888449e-04   3.910637e-20   29648776
  5.376788e-01   2.127269e-16   5.891295e-04   3.898085e-20   29888654
  5.397198e-01   2.129617e-16   5.892792e-04   3.886648e-20   30123490
  5.417605e-01   2.130916e-16   5.889187e-04   3.876353e-20   30334570
  5.438008e-01   2.133239e-16   5.889866e-04   3.866137e-20   30566524
  5.458411e-01   2.135362e-16   5.890413e-04   3.853483e-20   30798370
  5.478823e-01   2.136580e-16   5.894562e-04   3.840949e-20   31052026
  5.499229e-01   2.139317e-16   5.886551e-04   3.834635e-20   31241782
  5.519630e-01   2.141178e-16   5.891853e-04   3.821186e-20   31502128
  5.540036e-01   2.142608e-16   5.889524e-04   3.811425e-20   31721474
  5.560439e-01   2.143886e-16   5.890206e-04   3.800370e-20   31960210
  5.580845e-01   2.144860e-16   5.890910e-04   3.787333e-20   32200582
  5.601251e-01   2.146630e-16   5.889897e-04   3.775754e-20   32429512
  5.621660e-01   2.148652e-16   5.893423e-04   3.764600e-20   32685226
  5.642068e-01   2.149781e-16   5.889439e-04   3.756202e-20   32900830
  5.662468e-01   2.152570e-16   5.888631e-04   3.747579e-20   33135682
  5.682871e-01   2.152366e-16   5.890598e-04   3.731323e-20   33385288
  5.703276e-01   2.154946e-16   5.890887e-04   3.723408e-20   33625706
  5.723684e-01   2.156354e-16   5.891781e-04   3.710857e-20   33873550
  5.744087e-01   2.157189e-16   5.887629e-04   3.701228e-20   34091770
