# power spectrum of delta
# redshift z=48.519767
# k              Pk             sigma(k)       sigma(Pk)      count
  1.554082e-03   7.129135e-09   3.849967e-04   7.262823e-10   146
  3.315891e-03   3.343649e-08   5.645617e-04   1.157042e-09   1042
  5.255560e-03   1.158159e-07   5.631710e-04   2.410835e-09   2698
  7.226238e-03   3.121005e-07   5.714963e-04   4.574637e-09   5206
  9.236952e-03   6.814360e-07   5.879031e-04   7.817499e-09   8752
  1.128500e-02   1.294018e-06   5.950186e-04   1.153449e-08   13258
  1.332029e-02   2.204817e-06   5.812860e-04   1.674927e-08   18070
  1.533799e-02   3.374676e-06   5.833601e-04   2.201553e-08   24050
  1.738769e-02   4.849529e-06   5.989399e-04   2.750267e-08   31720
  1.943477e-02   6.665739e-06   5.849109e-04   3.386657e-08   38722
  2.146405e-02   8.647784e-06   5.862639e-04   4.028542e-08   47398
  2.349979e-02   1.094422e-05   5.882944e-04   4.591205e-08   56986
  2.554151e-02   1.351136e-05   5.907046e-04   5.252572e-08   67552
  2.758014e-02   1.641089e-05   5.872674e-04   5.882435e-08   78310
  2.961557e-02   1.902261e-05   5.882808e-04   6.373617e-08   90514
  3.164924e-02   2.219568e-05   5.857631e-04   6.993609e-08   102938
  3.368563e-02   2.501034e-05   5.901325e-04   7.320463e-08   117412
  3.572860e-02   2.863209e-05   5.900212e-04   7.877418e-08   132106
  3.776869e-02   3.201965e-05   5.879385e-04   8.359400e-08   147154
  3.980581e-02   3.537812e-05   5.881164e-04   8.758088e-08   163522
  4.184971e-02   3.920532e-05   5.917380e-04   9.206204e-08   181804
  4.388716e-02   4.313355e-05   5.852792e-04   9.776562e-08   197722
  4.592521e-02   4.734452e-05   5.913571e-04   1.011697e-07   218866
  4.796858e-02   5.244090e-05   5.883333e-04   1.075881e-07   237542
  5.000645e-02   5.711173e-05   5.882751e-04   1.125476e-07   258136
  5.204613e-02   6.238980e-05   5.892119e-04   1.182332e-07   280066
  5.408484e-02   6.776686e-05   5.879532e-04   1.238074e-07   301774
  5.612494e-02   7.383288e-05   5.897386e-04   1.291359e-07   326050
  5.816725e-02   8.046539e-05   5.892357e-04   1.365454e-07   349792
  6.020894e-02   8.723612e-05   5.898220e-04   1.430818e-07   375154
  6.224878e-02   9.401486e-05   5.878390e-04   1.495542e-07   399742
  6.428502e-02   1.016509e-04   5.877282e-04   1.558323e-07   426266
  6.632420e-02   1.085990e-04   5.892967e-04   1.612956e-07   454960
  6.836448e-02   1.160042e-04   5.887382e-04   1.670926e-07   482734
  7.040483e-02   1.234581e-04   5.895060e-04   1.725510e-07   512746
  7.244666e-02   1.307292e-04   5.892082e-04   1.774827e-07   542746
  7.448833e-02   1.367077e-04   5.895081e-04   1.805161e-07   573952
  7.652873e-02   1.433345e-04   5.886192e-04   1.854025e-07   604918
  7.856782e-02   1.501430e-04   5.887181e-04   1.882255e-07   637666
  8.060887e-02   1.555401e-04   5.897344e-04   1.893322e-07   672482
  8.265024e-02   1.616920e-04   5.887854e-04   1.924983e-07   705748
  8.468883e-02   1.664492e-04   5.884884e-04   1.929959e-07   740482
  8.673009e-02   1.711467e-04   5.901845e-04   1.936569e-07   779026
  8.877006e-02   1.754500e-04   5.875992e-04   1.946241e-07   812614
  9.081033e-02   1.801511e-04   5.902277e-04   1.950599e-07   854200
  9.285241e-02   1.849259e-04   5.887737e-04   1.960365e-07   890746
  9.489189e-02   1.894837e-04   5.888028e-04   1.961162e-07   930394
  9.693174e-02   1.944200e-04   5.888121e-04   1.977112e-07   970982
  9.897209e-02   1.994041e-04   5.890745e-04   1.982897e-07   1012600
  1.010137e-01   2.046934e-04   5.897237e-04   1.995615e-07   1055890
  1.030542e-01   2.105644e-04   5.884073e-04   2.020141e-07   1096630
  1.050933e-01   2.165495e-04   5.887890e-04   2.029447e-07   1141378
  1.071337e-01   2.234589e-04   5.890564e-04   2.054670e-07   1186552
  1.091740e-01   2.309645e-04   5.889981e-04   2.083857e-07   1231798
  1.112148e-01   2.388262e-04   5.893633e-04   2.117123e-07   1279234
  1.132559e-01   2.476795e-04   5.890093e-04   2.154930e-07   1325906
  1.152965e-01   2.569049e-04   5.891197e-04   2.195177e-07   1374352
  1.173364e-01   2.660258e-04   5.886007e-04   2.235911e-07   1421950
  1.193758e-01   2.766453e-04   5.890300e-04   2.282460e-07   1472962
  1.214157e-01   2.861979e-04   5.886064e-04   2.321170e-07   1522954
  1.234545e-01   2.959068e-04   5.884752e-04   2.363179e-07   1573804
  1.254965e-01   3.062212e-04   5.906693e-04   2.397634e-07   1632274
  1.275390e-01   3.158685e-04   5.886302e-04   2.437457e-07   1680226
  1.295769e-01   3.249283e-04   5.879889e-04   2.474729e-07   1732682
  1.316167e-01   3.340182e-04   5.894980e-04   2.495671e-07   1792204
  1.336589e-01   3.426999e-04   5.896575e-04   2.520654e-07   1848298
  1.356989e-01   3.501383e-04   5.883050e-04   2.547092e-07   1901050
  1.377383e-01   3.567245e-04   5.890297e-04   2.545733e-07   1961326
  1.397792e-01   3.626756e-04   5.892228e-04   2.557739e-07   2020312
  1.418209e-01   3.691128e-04   5.895741e-04   2.560627e-07   2080930
  1.438627e-01   3.738213e-04   5.893024e-04   2.557360e-07   2140390
  1.459026e-01   3.785702e-04   5.883405e-04   2.558251e-07   2198162
  1.479427e-01   3.822805e-04   5.893956e-04   2.541541e-07   2263864
  1.499842e-01   3.863251e-04   5.893769e-04   2.532450e-07   2326426
  1.520249e-01   3.898299e-04   5.889045e-04   2.520909e-07   2388550
  1.540650e-01   3.929170e-04   5.888570e-04   2.506119e-07   2453098
  1.561047e-01   3.968408e-04   5.886971e-04   2.501121e-07   2517592
  1.581449e-01   4.015773e-04   5.892905e-04   2.503452e-07   2586070
  1.601854e-01   4.053759e-04   5.889181e-04   2.490254e-07   2651842
  1.622257e-01   4.100718e-04   5.889579e-04   2.479737e-07   2720330
  1.642669e-01   4.155919e-04   5.894439e-04   2.491211e-07   2791156
  1.663078e-01   4.218112e-04   5.889934e-04   2.497300e-07   2858554
  1.683481e-01   4.284093e-04   5.890635e-04   2.503515e-07   2929594
  1.703877e-01   4.358795e-04   5.885431e-04   2.516676e-07   2998762
  1.724278e-01   4.436763e-04   5.891948e-04   2.532568e-07   3074188
  1.744675e-01   4.531532e-04   5.885376e-04   2.554296e-07   3143482
  1.765088e-01   4.621464e-04   5.900653e-04   2.572178e-07   3226186
  1.785498e-01   4.715101e-04   5.882615e-04   2.605895e-07   3291158
  1.805901e-01   4.817569e-04   5.897179e-04   2.623509e-07   3375112
  1.826317e-01   4.925138e-04   5.890290e-04   2.654555e-07   3447658
  1.846719e-01   5.023029e-04   5.889171e-04   2.677571e-07   3524626
  1.867120e-01   5.124048e-04   5.888543e-04   2.703862e-07   3602998
  1.887512e-01   5.224322e-04   5.883706e-04   2.724523e-07   3678592
  1.907908e-01   5.316218e-04   5.892546e-04   2.739801e-07   3764122
  1.928324e-01   5.408343e-04   5.894579e-04   2.759480e-07   3846598
  1.948727e-01   5.499523e-04   5.885077e-04   2.775840e-07   3922250
  1.969136e-01   5.574522e-04   5.896943e-04   2.787129e-07   4013032
  1.989552e-01   5.643790e-04   5.889700e-04   2.788485e-07   4091182
  2.009950e-01   5.708219e-04   5.887664e-04   2.796815e-07   4174282
  2.030353e-01   5.767209e-04   5.891040e-04   2.794640e-07   4261978
  2.050762e-01   5.813501e-04   5.892160e-04   2.787297e-07   4348624
  2.071163e-01   5.861559e-04   5.886637e-04   2.784553e-07   4431430
  2.091564e-01   5.897704e-04   5.892138e-04   2.775277e-07   4523290
  2.111972e-01   5.939260e-04   5.891043e-04   2.768965e-07   4611386
  2.132376e-01   5.975919e-04   5.888473e-04   2.760324e-07   4698814
  2.152782e-01   6.010215e-04   5.893426e-04   2.744919e-07   4792984
  2.173194e-01   6.047077e-04   5.892017e-04   2.735878e-07   4883194
  2.193596e-01   6.071003e-04   5.887755e-04   2.724953e-07   4971694
  2.214001e-01   6.107120e-04   5.893212e-04   2.714207e-07   5069434
  2.234405e-01   6.158282e-04   5.886957e-04   2.713147e-07   5157736
  2.254804e-01   6.201639e-04   5.891220e-04   2.710959e-07   5256202
  2.275212e-01   6.248309e-04   5.891252e-04   2.704082e-07   5351990
  2.295614e-01   6.304122e-04   5.887454e-04   2.702694e-07   5444914
  2.316024e-01   6.365444e-04   5.895775e-04   2.701563e-07   5550088
  2.336441e-01   6.434165e-04   5.892314e-04   2.707037e-07   5644774
  2.356844e-01   6.500853e-04   5.887291e-04   2.715303e-07   5739034
  2.377243e-01   6.582658e-04   5.889493e-04   2.726002e-07   5841154
  2.397648e-01   6.659643e-04   5.891188e-04   2.732161e-07   5943448
  2.418057e-01   6.744341e-04   5.891894e-04   2.743542e-07   6045670
  2.438457e-01   6.837994e-04   5.886738e-04   2.759767e-07   6142586
  2.458857e-01   6.922000e-04   5.890965e-04   2.768196e-07   6250738
  2.479269e-01   7.010388e-04   5.893339e-04   2.782336e-07   6357172
  2.499678e-01   7.095412e-04   5.890271e-04   2.792681e-07   6458506
  2.520084e-01   7.185077e-04   5.891472e-04   2.804252e-07   6566290
  2.540484e-01   7.261036e-04   5.886483e-04   2.815010e-07   6667414
  2.560881e-01   7.342219e-04   5.889729e-04   2.819217e-07   6778336
  2.581289e-01   7.425463e-04   5.893065e-04   2.828923e-07   6890218
  2.601690e-01   7.497360e-04   5.886464e-04   2.836886e-07   6992306
  2.622097e-01   7.561565e-04   5.895050e-04   2.838964e-07   7113454
  2.642508e-01   7.628411e-04   5.888931e-04   2.842874e-07   7216216
  2.662907e-01   7.680429e-04   5.889220e-04   2.836542e-07   7328218
  2.683311e-01   7.731248e-04   5.891504e-04   2.835952e-07   7444414
  2.703714e-01   7.774184e-04   5.887477e-04   2.831525e-07   7553290
  2.724122e-01   7.820126e-04   5.894442e-04   2.824389e-07   7676368
  2.744529e-01   7.867205e-04   5.888427e-04   2.823411e-07   7783150
  2.764932e-01   7.899746e-04   5.891771e-04   2.811832e-07   7904570
  2.785337e-01   7.931920e-04   5.888377e-04   2.804827e-07   8017570
  2.805747e-01   7.970984e-04   5.894749e-04   2.795349e-07   8143840
  2.826158e-01   8.011279e-04   5.889589e-04   2.791179e-07   8255134
  2.846555e-01   8.042510e-04   5.886996e-04   2.781697e-07   8371450
  2.866957e-01   8.082799e-04   5.891278e-04   2.776499e-07   8498578
  2.887371e-01   8.127397e-04   5.893995e-04   2.769715e-07   8623180
  2.907783e-01   8.172764e-04   5.891794e-04   2.767629e-07   8742034
  2.928185e-01   8.220347e-04   5.887409e-04   2.765101e-07   8859194
  2.948582e-01   8.266273e-04   5.888043e-04   2.760874e-07   8984386
  2.968984e-01   8.326696e-04   5.889953e-04   2.761290e-07   9111652
  2.989394e-01   8.384434e-04   5.894313e-04   2.759770e-07   9243322
  3.009801e-01   8.442869e-04   5.888434e-04   2.763517e-07   9361378
  3.030204e-01   8.508320e-04   5.890316e-04   2.766472e-07   9491998
  3.050606e-01   8.579578e-04   5.889315e-04   2.769050e-07   9618016
  3.071010e-01   8.649830e-04   5.891205e-04   2.774893e-07   9750178
  3.091413e-01   8.706884e-04   5.888404e-04   2.773441e-07   9875558
  3.111820e-01   8.795508e-04   5.893640e-04   2.782313e-07   10015834
  3.132223e-01   8.851995e-04   5.885801e-04   2.785003e-07   10133344
  3.152627e-01   8.925557e-04   5.895529e-04   2.788201e-07   10282522
  3.173040e-01   8.997338e-04   5.889812e-04   2.793478e-07   10406974
  3.193437e-01   9.054244e-04   5.886096e-04   2.794665e-07   10534378
  3.213841e-01   9.123303e-04   5.894405e-04   2.792890e-07   10684456
  3.234254e-01   9.191726e-04   5.890917e-04   2.797255e-07   10813894
  3.254654e-01   9.247252e-04   5.887488e-04   2.800118e-07   10944626
  3.275058e-01   9.303059e-04   5.892300e-04   2.798129e-07   11091802
  3.295466e-01   9.355351e-04   5.889694e-04   2.796717e-07   11224756
  3.315871e-01   9.400196e-04   5.891399e-04   2.790556e-07   11367730
  3.336279e-01   9.454505e-04   5.891097e-04   2.790345e-07   11507890
  3.356680e-01   9.500240e-04   5.886912e-04   2.788148e-07   11640658
  3.377084e-01   9.541340e-04   5.893412e-04   2.785227e-07   11795380
  3.397495e-01   9.577922e-04   5.891216e-04   2.776621e-07   11933434
  3.417900e-01   9.616177e-04   5.889963e-04   2.772641e-07   12074954
  3.438308e-01   9.660097e-04   5.892532e-04   2.767155e-07   12225142
  3.458709e-01   9.697053e-04   5.885745e-04   2.763871e-07   12356104
  3.479106e-01   9.732757e-04   5.891058e-04   2.755919e-07   12513442
  3.499516e-01   9.777904e-04   5.892873e-04   2.751703e-07   12664810
  3.519928e-01   9.808602e-04   5.891937e-04   2.744828e-07   12811246
  3.540334e-01   9.852596e-04   5.889181e-04   2.740619e-07   12953536
  3.560735e-01   9.898304e-04   5.890044e-04   2.741028e-07   13105042
  3.581140e-01   9.936176e-04   5.891192e-04   2.732807e-07   13258670
  3.601546e-01   9.986397e-04   5.890325e-04   2.733682e-07   13408738
  3.621953e-01   1.003224e-03   5.890899e-04   2.729241e-07   13562320
  3.642355e-01   1.008558e-03   5.888450e-04   2.731774e-07   13709062
  3.662757e-01   1.012915e-03   5.891202e-04   2.723315e-07   13870258
  3.683171e-01   1.018151e-03   5.894186e-04   2.723551e-07   14032714
  3.703575e-01   1.023878e-03   5.886241e-04   2.726999e-07   14169232
  3.723976e-01   1.029517e-03   5.891956e-04   2.725675e-07   14339422
  3.744381e-01   1.034576e-03   5.888919e-04   2.723746e-07   14489330
  3.764785e-01   1.040009e-03   5.891282e-04   2.721796e-07   14654458
  3.785190e-01   1.045675e-03   5.889293e-04   2.725881e-07   14808292
  3.805593e-01   1.051187e-03   5.890179e-04   2.722538e-07   14970130
  3.825997e-01   1.057082e-03   5.890254e-04   2.724275e-07   15131626
  3.846399e-01   1.062216e-03   5.888648e-04   2.723485e-07   15289198
  3.866807e-01   1.067846e-03   5.894136e-04   2.722036e-07   15466552
  3.887217e-01   1.072277e-03   5.889267e-04   2.719680e-07   15616714
  3.907617e-01   1.077118e-03   5.889009e-04   2.719631e-07   15780506
  3.928022e-01   1.081763e-03   5.891699e-04   2.716134e-07   15953542
  3.948433e-01   1.087119e-03   5.892495e-04   2.713961e-07   16121296
  3.968834e-01   1.091167e-03   5.886227e-04   2.713943e-07   16270762
  3.989235e-01   1.094572e-03   5.892919e-04   2.705965e-07   16457182
  4.009646e-01   1.099260e-03   5.891739e-04   2.703023e-07   16623562
  4.030052e-01   1.102836e-03   5.889160e-04   2.698299e-07   16785784
  4.050455e-01   1.107529e-03   5.890644e-04   2.696662e-07   16959370
  4.070861e-01   1.111267e-03   5.891235e-04   2.692318e-07   17132774
  4.091266e-01   1.113762e-03   5.889569e-04   2.686750e-07   17300602
  4.111672e-01   1.117337e-03   5.891834e-04   2.679802e-07   17480656
  4.132078e-01   1.121456e-03   5.889644e-04   2.678106e-07   17647558
  4.152481e-01   1.125184e-03   5.890172e-04   2.674168e-07   17823778
  4.172887e-01   1.129982e-03   5.890581e-04   2.670440e-07   18001594
  4.193290e-01   1.133497e-03   5.888841e-04   2.666800e-07   18172300
  4.213694e-01   1.136652e-03   5.891306e-04   2.662510e-07   18356770
  4.234105e-01   1.140680e-03   5.893313e-04   2.659541e-07   18541082
  4.254516e-01   1.144783e-03   5.891095e-04   2.654709e-07   18713914
  4.274917e-01   1.148654e-03   5.886533e-04   2.653948e-07   18879742
  4.295318e-01   1.152363e-03   5.892187e-04   2.647033e-07   19077592
  4.315727e-01   1.156823e-03   5.891074e-04   2.643542e-07   19255474
  4.336133e-01   1.160803e-03   5.890497e-04   2.641123e-07   19436278
  4.356531e-01   1.165394e-03   5.886327e-04   2.642205e-07   19605994
  4.376936e-01   1.169859e-03   5.894559e-04   2.638561e-07   19817344
  4.397347e-01   1.174859e-03   5.889775e-04   2.636557e-07   19985702
  4.417750e-01   1.177509e-03   5.890630e-04   2.631272e-07   20175730
  4.438152e-01   1.182235e-03   5.887860e-04   2.630649e-07   20352682
  4.458557e-01   1.187133e-03   5.893597e-04   2.629527e-07   20559616
  4.478969e-01   1.191032e-03   5.891648e-04   2.625980e-07   20741518
  4.499369e-01   1.195836e-03   5.886230e-04   2.625431e-07   20912026
  4.519768e-01   1.199433e-03   5.891225e-04   2.620303e-07   21121018
  4.540176e-01   1.203551e-03   5.890883e-04   2.618676e-07   21310012
  4.560579e-01   1.207586e-03   5.889301e-04   2.616376e-07   21496154
  4.580989e-01   1.211761e-03   5.893557e-04   2.612419e-07   21705946
  4.601398e-01   1.215316e-03   5.889070e-04   2.608012e-07   21882562
  4.621802e-01   1.219254e-03   5.891458e-04   2.605847e-07   22085428
  4.642214e-01   1.222940e-03   5.893143e-04   2.602643e-07   22287106
  4.662615e-01   1.226034e-03   5.885500e-04   2.600315e-07   22455010
  4.683013e-01   1.230555e-03   5.890571e-04   2.597469e-07   22671694
  4.703421e-01   1.233326e-03   5.892012e-04   2.591509e-07   22874368
  4.723830e-01   1.237118e-03   5.891203e-04   2.589430e-07   23070146
  4.744235e-01   1.240598e-03   5.889653e-04   2.586637e-07   23264038
  4.764637e-01   1.243695e-03   5.889570e-04   2.580695e-07   23464210
  4.785045e-01   1.246906e-03   5.893101e-04   2.575319e-07   23679208
  4.805453e-01   1.250409e-03   5.889894e-04   2.573430e-07   23868658
  4.825856e-01   1.252785e-03   5.889440e-04   2.568160e-07   24070582
  4.846259e-01   1.256970e-03   5.890549e-04   2.564755e-07   24278842
  4.866664e-01   1.259463e-03   5.890268e-04   2.560147e-07   24482272
  4.887069e-01   1.262664e-03   5.890750e-04   2.556245e-07   24689510
  4.907474e-01   1.266564e-03   5.890195e-04   2.553749e-07   24894634
  4.927881e-01   1.270198e-03   5.891565e-04   2.550429e-07   25108474
  4.948289e-01   1.272579e-03   5.890919e-04   2.543883e-07   25313116
  4.968692e-01   1.276636e-03   5.889389e-04   2.543298e-07   25515970
  4.989095e-01   1.280163e-03   5.889848e-04   2.538718e-07   25727962
  5.009501e-01   1.283023e-03   5.892016e-04   2.534400e-07   25948954
  5.029911e-01   1.286570e-03   5.891242e-04   2.531975e-07   26157220
  5.050312e-01   1.290214e-03   5.887329e-04   2.529749e-07   26351546
  5.070713e-01   1.293998e-03   5.891599e-04   2.527274e-07   26585314
  5.091124e-01   1.297293e-03   5.891783e-04   2.522693e-07   26800630
  5.111529e-01   1.300496e-03   5.889142e-04   2.520559e-07   27003376
  5.131928e-01   1.303570e-03   5.887939e-04   2.517447e-07   27213202
  5.152333e-01   1.306405e-03   5.893371e-04   2.510808e-07   27455194
  5.172745e-01   1.310083e-03   5.891605e-04   2.508459e-07   27666070
  5.193150e-01   1.314409e-03   5.888642e-04   2.507219e-07   27870280
  5.213548e-01   1.316348e-03   5.888416e-04   2.501419e-07   28088090
  5.233952e-01   1.319593e-03   5.892064e-04   2.497502e-07   28326262
  5.254363e-01   1.323792e-03   5.891855e-04   2.495932e-07   28546906
  5.274771e-01   1.326678e-03   5.890514e-04   2.493046e-07   28762552
  5.295175e-01   1.329715e-03   5.889643e-04   2.490262e-07   28979734
  5.315579e-01   1.331811e-03   5.891116e-04   2.483811e-07   29211106
  5.335984e-01   1.335631e-03   5.890058e-04   2.482165e-07   29431738
  5.356386e-01   1.338826e-03   5.888449e-04   2.478717e-07   29648776
  5.376788e-01   1.341250e-03   5.891295e-04   2.474094e-07   29888654
  5.397198e-01   1.344297e-03   5.892792e-04   2.469895e-07   30123490
  5.417605e-01   1.346721e-03   5.889187e-04   2.466660e-07   30334570
  5.438008e-01   1.349832e-03   5.889866e-04   2.463355e-07   30566524
  5.458411e-01   1.352846e-03   5.890413e-04   2.458570e-07   30798370
  5.478823e-01   1.355235e-03   5.894562e-04   2.453973e-07   31052026
  5.499229e-01   1.358600e-03   5.886551e-04   2.452817e-07   31241782
  5.519630e-01   1.361487e-03   5.891853e-04   2.447762e-07   31502128
  5.540036e-01   1.364091e-03   5.889524e-04   2.444674e-07   31721474
  5.560439e-01   1.366528e-03   5.890206e-04   2.440745e-07   31960210
  5.580845e-01   1.368850e-03   5.890910e-04   2.435707e-07   32200582
  5.601251e-01   1.371717e-03   5.889897e-04   2.431641e-07   32429512
  5.621660e-01   1.374751e-03   5.893423e-04   2.427782e-07   32685226
  5.642068e-01   1.377208e-03   5.889439e-04   2.425750e-07   32900830
  5.662468e-01   1.380728e-03   5.888631e-04   2.423529e-07   33135682
  5.682871e-01   1.382340e-03   5.890598e-04   2.416303e-07   33385288
  5.703276e-01   1.385772e-03   5.890887e-04   2.414237e-07   33625706
  5.723684e-01   1.388389e-03   5.891781e-04   2.409466e-07   33873550
  5.744087e-01   1.390718e-03   5.887629e-04   2.406673e-07   34091770
  5.764491e-01   1.393569e-03   5.892514e-04   2.404062e-07   34362160
