# power spectrum of zeta (dimensionless)
# redshift z=0.931340
# k              Pk             sigma(k)       sigma(Pk)      count
  1.554082e-03   4.095117e-20   3.849967e-04   4.887553e-21   146
  3.315891e-03   6.150328e-19   5.645617e-04   2.354582e-20   1042
  5.255560e-03   3.003319e-18   5.631710e-04   6.412359e-20   2698
  7.226238e-03   9.276523e-18   5.714963e-04   1.374378e-19   5206
  9.236952e-03   2.157739e-17   5.879031e-04   2.485912e-19   8752
  1.128500e-02   4.238625e-17   5.950186e-04   3.786492e-19   13258
  1.332029e-02   7.367352e-17   5.812860e-04   5.603172e-19   18070
  1.533799e-02   1.141745e-16   5.833601e-04   7.454014e-19   24050
  1.738769e-02   1.654498e-16   5.989399e-04   9.389144e-19   31720
  1.943477e-02   2.286484e-16   5.849109e-04   1.161850e-18   38722
  2.146405e-02   2.978399e-16   5.862639e-04   1.387359e-18   47398
  2.349979e-02   3.779887e-16   5.882944e-04   1.585803e-18   56986
  2.554151e-02   4.677108e-16   5.907046e-04   1.818571e-18   67552
  2.758014e-02   5.687491e-16   5.872674e-04   2.038422e-18   78310
  2.961557e-02   6.599276e-16   5.882808e-04   2.211398e-18   90514
  3.164924e-02   7.704656e-16   5.857631e-04   2.427655e-18   102938
  3.368563e-02   8.684563e-16   5.901325e-04   2.542344e-18   117412
  3.572860e-02   9.943011e-16   5.900212e-04   2.735507e-18   132106
  3.776869e-02   1.111937e-15   5.879385e-04   2.902257e-18   147154
  3.980581e-02   1.228201e-15   5.881164e-04   3.040729e-18   163522
  4.184971e-02   1.361238e-15   5.917380e-04   3.197988e-18   181804
  4.388716e-02   1.496292e-15   5.852792e-04   3.391583e-18   197722
  4.592521e-02   1.641397e-15   5.913571e-04   3.509270e-18   218866
  4.796858e-02   1.816174e-15   5.883333e-04   3.726325e-18   237542
  5.000645e-02   1.976395e-15   5.882751e-04   3.895426e-18   258136
  5.204613e-02   2.157547e-15   5.892119e-04   4.088148e-18   280066
  5.408484e-02   2.340353e-15   5.879532e-04   4.275228e-18   301774
  5.612494e-02   2.547758e-15   5.897386e-04   4.455157e-18   326050
  5.816725e-02   2.775544e-15   5.892357e-04   4.710728e-18   349792
  6.020894e-02   3.003867e-15   5.898220e-04   4.923114e-18   375154
  6.224878e-02   3.234301e-15   5.878390e-04   5.144353e-18   399742
  6.428502e-02   3.491591e-15   5.877282e-04   5.354817e-18   426266
  6.632420e-02   3.723560e-15   5.892967e-04   5.530761e-18   454960
  6.836448e-02   3.973249e-15   5.887382e-04   5.722435e-18   482734
  7.040483e-02   4.224394e-15   5.895060e-04   5.907131e-18   512746
  7.244666e-02   4.465092e-15   5.892082e-04   6.061049e-18   542746
  7.448833e-02   4.662867e-15   5.895081e-04   6.158337e-18   573952
  7.652873e-02   4.882032e-15   5.886192e-04   6.313676e-18   604918
  7.856782e-02   5.106447e-15   5.887181e-04   6.403682e-18   637666
  8.060887e-02   5.282567e-15   5.897344e-04   6.431627e-18   672482
  8.265024e-02   5.484768e-15   5.887854e-04   6.531456e-18   705748
  8.468883e-02   5.638366e-15   5.884884e-04   6.537214e-18   740482
  8.673009e-02   5.785241e-15   5.901845e-04   6.545054e-18   779026
  8.877006e-02   5.922375e-15   5.875992e-04   6.571579e-18   812614
  9.081033e-02   6.073478e-15   5.902277e-04   6.576249e-18   854200
  9.285241e-02   6.219971e-15   5.887737e-04   6.596081e-18   890746
  9.489189e-02   6.365521e-15   5.888028e-04   6.589061e-18   930394
  9.693174e-02   6.521580e-15   5.888121e-04   6.627796e-18   970982
  9.897209e-02   6.672911e-15   5.890745e-04   6.635347e-18   1012600
  1.010137e-01   6.847848e-15   5.897237e-04   6.676983e-18   1055890
  1.030542e-01   7.027526e-15   5.884073e-04   6.737810e-18   1096630
  1.050933e-01   7.211008e-15   5.887890e-04   6.756396e-18   1141378
  1.071337e-01   7.425430e-15   5.890564e-04   6.828584e-18   1186552
  1.091740e-01   7.663755e-15   5.889981e-04   6.916006e-18   1231798
  1.112148e-01   7.901943e-15   5.893633e-04   7.005801e-18   1279234
  1.132559e-01   8.177020e-15   5.890093e-04   7.114781e-18   1325906
  1.152965e-01   8.459672e-15   5.891197e-04   7.225668e-18   1374352
  1.173364e-01   8.741014e-15   5.886007e-04   7.344252e-18   1421950
  1.193758e-01   9.071156e-15   5.890300e-04   7.482055e-18   1472962
  1.214157e-01   9.353526e-15   5.886064e-04   7.589398e-18   1522954
  1.234545e-01   9.642851e-15   5.884752e-04   7.694193e-18   1573804
  1.254965e-01   9.951369e-15   5.906693e-04   7.791306e-18   1632274
  1.275390e-01   1.024056e-14   5.886302e-04   7.904407e-18   1680226
  1.295769e-01   1.050283e-14   5.879889e-04   8.003496e-18   1732682
  1.316167e-01   1.075637e-14   5.894980e-04   8.037529e-18   1792204
  1.336589e-01   1.101812e-14   5.896575e-04   8.104312e-18   1848298
  1.356989e-01   1.122883e-14   5.883050e-04   8.162442e-18   1901050
  1.377383e-01   1.141431e-14   5.890297e-04   8.153391e-18   1961326
  1.397792e-01   1.157273e-14   5.892228e-04   8.159477e-18   2020312
  1.418209e-01   1.174751e-14   5.895741e-04   8.152483e-18   2080930
  1.438627e-01   1.186984e-14   5.893024e-04   8.114509e-18   2140390
  1.459026e-01   1.199020e-14   5.883405e-04   8.108706e-18   2198162
  1.479427e-01   1.208355e-14   5.893956e-04   8.035595e-18   2263864
  1.499842e-01   1.218724e-14   5.893769e-04   7.995263e-18   2326426
  1.520249e-01   1.227260e-14   5.889045e-04   7.946823e-18   2388550
  1.540650e-01   1.233606e-14   5.888570e-04   7.874788e-18   2453098
  1.561047e-01   1.243026e-14   5.886971e-04   7.838974e-18   2517592
  1.581449e-01   1.255041e-14   5.892905e-04   7.824840e-18   2586070
  1.601854e-01   1.264233e-14   5.889181e-04   7.769154e-18   2651842
  1.622257e-01   1.275471e-14   5.889579e-04   7.722930e-18   2720330
  1.642669e-01   1.289235e-14   5.894439e-04   7.730548e-18   2791156
  1.663078e-01   1.304881e-14   5.889934e-04   7.727769e-18   2858554
  1.683481e-01   1.321506e-14   5.890635e-04   7.725426e-18   2929594
  1.703877e-01   1.340196e-14   5.885431e-04   7.741203e-18   2998762
  1.724278e-01   1.359782e-14   5.891948e-04   7.765584e-18   3074188
  1.744675e-01   1.384059e-14   5.885376e-04   7.807333e-18   3143482
  1.765088e-01   1.405289e-14   5.900653e-04   7.826048e-18   3226186
  1.785498e-01   1.429752e-14   5.882615e-04   7.902323e-18   3291158
  1.805901e-01   1.454189e-14   5.897179e-04   7.920278e-18   3375112
  1.826317e-01   1.480435e-14   5.890290e-04   7.981258e-18   3447658
  1.846719e-01   1.504170e-14   5.889171e-04   8.022387e-18   3524626
  1.867120e-01   1.527852e-14   5.888543e-04   8.065172e-18   3602998
  1.887512e-01   1.551755e-14   5.883706e-04   8.100146e-18   3678592
  1.907908e-01   1.573926e-14   5.892546e-04   8.115496e-18   3764122
  1.928324e-01   1.593287e-14   5.894579e-04   8.135592e-18   3846598
  1.948727e-01   1.613864e-14   5.885077e-04   8.150159e-18   3922250
  1.969136e-01   1.629081e-14   5.896943e-04   8.144978e-18   4013032
  1.989552e-01   1.644270e-14   5.889700e-04   8.131895e-18   4091182
  2.009950e-01   1.657409e-14   5.887664e-04   8.126719e-18   4174282
  2.030353e-01   1.667808e-14   5.891040e-04   8.091689e-18   4261978
  2.050762e-01   1.675645e-14   5.892160e-04   8.042671e-18   4348624
  2.071163e-01   1.684806e-14   5.886637e-04   8.015502e-18   4431430
  2.091564e-01   1.688908e-14   5.892138e-04   7.957697e-18   4523290
  2.111972e-01   1.696028e-14   5.891043e-04   7.910526e-18   4611386
  2.132376e-01   1.702047e-14   5.888473e-04   7.864689e-18   4698814
  2.152782e-01   1.706286e-14   5.893426e-04   7.803682e-18   4792984
  2.173194e-01   1.710576e-14   5.892017e-04   7.750202e-18   4883194
  2.193596e-01   1.711970e-14   5.887755e-04   7.694011e-18   4971694
  2.214001e-01   1.717793e-14   5.893212e-04   7.643805e-18   5069434
  2.234405e-01   1.724979e-14   5.886957e-04   7.613181e-18   5157736
  2.254804e-01   1.731196e-14   5.891220e-04   7.577299e-18   5256202
  2.275212e-01   1.738027e-14   5.891252e-04   7.528484e-18   5351990
  2.295614e-01   1.746073e-14   5.887454e-04   7.495349e-18   5444914
  2.316024e-01   1.756696e-14   5.895775e-04   7.466624e-18   5550088
  2.336441e-01   1.768014e-14   5.892314e-04   7.455434e-18   5644774
  2.356844e-01   1.779436e-14   5.887291e-04   7.439323e-18   5739034
  2.377243e-01   1.792213e-14   5.889493e-04   7.435200e-18   5841154
  2.397648e-01   1.804588e-14   5.891188e-04   7.410467e-18   5943448
  2.418057e-01   1.819853e-14   5.891894e-04   7.421394e-18   6045670
  2.438457e-01   1.834708e-14   5.886738e-04   7.418675e-18   6142586
  2.458857e-01   1.846921e-14   5.890965e-04   7.400840e-18   6250738
  2.479269e-01   1.863177e-14   5.893339e-04   7.411551e-18   6357172
  2.499678e-01   1.876062e-14   5.890271e-04   7.397098e-18   6458506
  2.520084e-01   1.890258e-14   5.891472e-04   7.397454e-18   6566290
  2.540484e-01   1.899805e-14   5.886483e-04   7.379053e-18   6667414
  2.560881e-01   1.911302e-14   5.889729e-04   7.355653e-18   6778336
  2.581289e-01   1.924500e-14   5.893065e-04   7.349400e-18   6890218
  2.601690e-01   1.933096e-14   5.886464e-04   7.331572e-18   6992306
  2.622097e-01   1.940719e-14   5.895050e-04   7.303316e-18   7113454
  2.642508e-01   1.947419e-14   5.888931e-04   7.275308e-18   7216216
  2.662907e-01   1.952716e-14   5.889220e-04   7.228288e-18   7328218
  2.683311e-01   1.956165e-14   5.891504e-04   7.196277e-18   7444414
  2.703714e-01   1.960055e-14   5.887477e-04   7.158006e-18   7553290
  2.724122e-01   1.961713e-14   5.894442e-04   7.099322e-18   7676368
  2.744529e-01   1.965423e-14   5.888427e-04   7.077718e-18   7783150
  2.764932e-01   1.966028e-14   5.891771e-04   7.014721e-18   7904570
  2.785337e-01   1.965512e-14   5.888377e-04   6.973865e-18   8017570
  2.805747e-01   1.966974e-14   5.894749e-04   6.921242e-18   8143840
  2.826158e-01   1.968803e-14   5.889589e-04   6.878030e-18   8255134
  2.846555e-01   1.967733e-14   5.886996e-04   6.830766e-18   8371450
  2.866957e-01   1.969571e-14   5.891278e-04   6.785850e-18   8498578
  2.887371e-01   1.970903e-14   5.893995e-04   6.739953e-18   8623180
  2.907783e-01   1.972224e-14   5.891794e-04   6.699451e-18   8742034
  2.928185e-01   1.973337e-14   5.887409e-04   6.661518e-18   8859194
  2.948582e-01   1.977432e-14   5.888043e-04   6.629431e-18   8984386
  2.968984e-01   1.980672e-14   5.889953e-04   6.592101e-18   9111652
  2.989394e-01   1.984000e-14   5.894313e-04   6.554183e-18   9243322
  3.009801e-01   1.987425e-14   5.888434e-04   6.533575e-18   9361378
  3.030204e-01   1.992837e-14   5.890316e-04   6.507510e-18   9491998
  3.050606e-01   1.997156e-14   5.889315e-04   6.474375e-18   9618016
  3.071010e-01   2.001699e-14   5.891205e-04   6.447015e-18   9750178
  3.091413e-01   2.004331e-14   5.888404e-04   6.410297e-18   9875558
  3.111820e-01   2.012133e-14   5.893640e-04   6.396359e-18   10015834
  3.132223e-01   2.013174e-14   5.885801e-04   6.363025e-18   10133344
  3.152627e-01   2.018503e-14   5.895529e-04   6.333949e-18   10282522
  3.173040e-01   2.022142e-14   5.889812e-04   6.309528e-18   10406974
  3.193437e-01   2.023255e-14   5.886096e-04   6.273245e-18   10534378
  3.213841e-01   2.027727e-14   5.894405e-04   6.240204e-18   10684456
  3.234254e-01   2.030799e-14   5.890917e-04   6.213271e-18   10813894
  3.254654e-01   2.031517e-14   5.887488e-04   6.179830e-18   10944626
  3.275058e-01   2.032364e-14   5.892300e-04   6.146885e-18   11091802
  3.295466e-01   2.032762e-14   5.889694e-04   6.110317e-18   11224756
  3.315871e-01   2.031031e-14   5.891399e-04   6.065487e-18   11367730
  3.336279e-01   2.030617e-14   5.891097e-04   6.027726e-18   11507890
  3.356680e-01   2.029961e-14   5.886912e-04   5.993873e-18   11640658
  3.377084e-01   2.027732e-14   5.893412e-04   5.951855e-18   11795380
  3.397495e-01   2.025053e-14   5.891216e-04   5.904991e-18   11933434
  3.417900e-01   2.022508e-14   5.889963e-04   5.867181e-18   12074954
  3.438308e-01   2.021833e-14   5.892532e-04   5.832064e-18   12225142
  3.458709e-01   2.018006e-14   5.885745e-04   5.791309e-18   12356104
  3.479106e-01   2.014962e-14   5.891058e-04   5.744045e-18   12513442
  3.499516e-01   2.013059e-14   5.892873e-04   5.705155e-18   12664810
  3.519928e-01   2.008320e-14   5.891937e-04   5.663442e-18   12811246
  3.540334e-01   2.005668e-14   5.889181e-04   5.620435e-18   12953536
  3.560735e-01   2.004627e-14   5.890044e-04   5.592005e-18   13105042
  3.581140e-01   2.000085e-14   5.891192e-04   5.542741e-18   13258670
  3.601546e-01   1.999566e-14   5.890325e-04   5.516251e-18   13408738
  3.621953e-01   1.997516e-14   5.890899e-04   5.478761e-18   13562320
  3.642355e-01   1.995590e-14   5.888450e-04   5.447078e-18   13709062
  3.662757e-01   1.992297e-14   5.891202e-04   5.406049e-18   13870258
  3.683171e-01   1.990418e-14   5.894186e-04   5.371079e-18   14032714
  3.703575e-01   1.988730e-14   5.886241e-04   5.342304e-18   14169232
  3.723976e-01   1.986713e-14   5.891956e-04   5.304758e-18   14339422
  3.744381e-01   1.985070e-14   5.888919e-04   5.275112e-18   14489330
  3.764785e-01   1.981043e-14   5.891282e-04   5.234797e-18   14654458
  3.785190e-01   1.978723e-14   5.889293e-04   5.204289e-18   14808292
  3.805593e-01   1.977464e-14   5.890179e-04   5.171214e-18   14970130
  3.825997e-01   1.976004e-14   5.890254e-04   5.143594e-18   15131626
  3.846399e-01   1.971529e-14   5.888648e-04   5.104925e-18   15289198
  3.866807e-01   1.968700e-14   5.894136e-04   5.068228e-18   15466552
  3.887217e-01   1.965114e-14   5.889267e-04   5.038223e-18   15616714
  3.907617e-01   1.962364e-14   5.889009e-04   5.005579e-18   15780506
  3.928022e-01   1.957696e-14   5.891699e-04   4.969047e-18   15953542
  3.948433e-01   1.954709e-14   5.892495e-04   4.934195e-18   16121296
  3.968834e-01   1.949890e-14   5.886227e-04   4.903022e-18   16270762
  3.989235e-01   1.943395e-14   5.892919e-04   4.856643e-18   16457182
  4.009646e-01   1.940661e-14   5.891739e-04   4.824274e-18   16623562
  4.030052e-01   1.933989e-14   5.889160e-04   4.788175e-18   16785784
  4.050455e-01   1.929610e-14   5.890644e-04   4.754727e-18   16959370
  4.070861e-01   1.924113e-14   5.891235e-04   4.718569e-18   17132774
  4.091266e-01   1.918296e-14   5.889569e-04   4.683901e-18   17300602
  4.111672e-01   1.911089e-14   5.891834e-04   4.643847e-18   17480656
  4.132078e-01   1.906902e-14   5.889644e-04   4.611962e-18   17647558
  4.152481e-01   1.901165e-14   5.890172e-04   4.578498e-18   17823778
  4.172887e-01   1.896790e-14   5.890581e-04   4.541721e-18   18001594
  4.193290e-01   1.891495e-14   5.888841e-04   4.511685e-18   18172300
  4.213694e-01   1.883922e-14   5.891306e-04   4.474766e-18   18356770
  4.234105e-01   1.878635e-14   5.893313e-04   4.440882e-18   18541082
  4.254516e-01   1.872803e-14   5.891095e-04   4.406182e-18   18713914
  4.274917e-01   1.867080e-14   5.886533e-04   4.374880e-18   18879742
  4.295318e-01   1.861234e-14   5.892187e-04   4.339495e-18   19077592
  4.315727e-01   1.855162e-14   5.891074e-04   4.304321e-18   19255474
  4.336133e-01   1.849264e-14   5.890497e-04   4.271985e-18   19436278
  4.356531e-01   1.843903e-14   5.886327e-04   4.245708e-18   19605994
  4.376936e-01   1.838797e-14   5.894559e-04   4.212280e-18   19817344
  4.397347e-01   1.833822e-14   5.889775e-04   4.182730e-18   19985702
  4.417750e-01   1.826240e-14   5.890630e-04   4.151095e-18   20175730
  4.438152e-01   1.820214e-14   5.887860e-04   4.118556e-18   20352682
  4.458557e-01   1.814621e-14   5.893597e-04   4.087691e-18   20559616
  4.478969e-01   1.808144e-14   5.891648e-04   4.054914e-18   20741518
  4.499369e-01   1.803140e-14   5.886230e-04   4.028897e-18   20912026
  4.519768e-01   1.796417e-14   5.891225e-04   3.996303e-18   21121018
  4.540176e-01   1.790807e-14   5.890883e-04   3.966151e-18   21310012
  4.560579e-01   1.783547e-14   5.889301e-04   3.936054e-18   21496154
  4.580989e-01   1.777121e-14   5.893557e-04   3.904002e-18   21705946
  4.601398e-01   1.770130e-14   5.889070e-04   3.872574e-18   21882562
  4.621802e-01   1.763788e-14   5.891458e-04   3.842552e-18   22085428
  4.642214e-01   1.757363e-14   5.893143e-04   3.814249e-18   22287106
  4.662615e-01   1.749470e-14   5.885500e-04   3.781528e-18   22455010
  4.683013e-01   1.743865e-14   5.890571e-04   3.757056e-18   22671694
  4.703421e-01   1.735283e-14   5.892012e-04   3.721985e-18   22874368
  4.723830e-01   1.729798e-14   5.891203e-04   3.695803e-18   23070146
  4.744235e-01   1.721645e-14   5.889653e-04   3.665350e-18   23264038
  4.764637e-01   1.713674e-14   5.889570e-04   3.634655e-18   23464210
  4.785045e-01   1.707122e-14   5.893101e-04   3.604652e-18   23679208
  4.805453e-01   1.699824e-14   5.889894e-04   3.574883e-18   23868658
  4.825856e-01   1.692445e-14   5.889440e-04   3.545797e-18   24070582
  4.846259e-01   1.685084e-14   5.890549e-04   3.516826e-18   24278842
  4.866664e-01   1.678228e-14   5.890268e-04   3.490941e-18   24482272
  4.887069e-01   1.671122e-14   5.890750e-04   3.463392e-18   24689510
  4.907474e-01   1.663475e-14   5.890195e-04   3.433462e-18   24894634
  4.927881e-01   1.656913e-14   5.891565e-04   3.406449e-18   25108474
  4.948289e-01   1.648866e-14   5.890919e-04   3.379666e-18   25313116
  4.968692e-01   1.641773e-14   5.889389e-04   3.352301e-18   25515970
  4.989095e-01   1.633945e-14   5.889848e-04   3.323577e-18   25727962
  5.009501e-01   1.627051e-14   5.892016e-04   3.296445e-18   25948954
  5.029911e-01   1.619445e-14   5.891242e-04   3.269523e-18   26157220
  5.050312e-01   1.612064e-14   5.887329e-04   3.243547e-18   26351546
  5.070713e-01   1.604551e-14   5.891599e-04   3.216903e-18   26585314
  5.091124e-01   1.597444e-14   5.891783e-04   3.190611e-18   26800630
  5.111529e-01   1.590014e-14   5.889142e-04   3.166150e-18   27003376
  5.131928e-01   1.583059e-14   5.887939e-04   3.140408e-18   27213202
  5.152333e-01   1.575003e-14   5.893371e-04   3.112795e-18   27455194
  5.172745e-01   1.567323e-14   5.891605e-04   3.087497e-18   27666070
  5.193150e-01   1.560667e-14   5.888642e-04   3.064419e-18   27870280
  5.213548e-01   1.552999e-14   5.888416e-04   3.038829e-18   28088090
  5.233952e-01   1.545812e-14   5.892064e-04   3.013971e-18   28326262
  5.254363e-01   1.538298e-14   5.891855e-04   2.988348e-18   28546906
  5.274771e-01   1.530912e-14   5.890514e-04   2.966252e-18   28762552
  5.295175e-01   1.522932e-14   5.889643e-04   2.940936e-18   28979734
  5.315579e-01   1.515078e-14   5.891116e-04   2.913723e-18   29211106
  5.335984e-01   1.507631e-14   5.890058e-04   2.890143e-18   29431738
  5.356386e-01   1.500321e-14   5.888449e-04   2.867809e-18   29648776
  5.376788e-01   1.493107e-14   5.891295e-04   2.844879e-18   29888654
  5.397198e-01   1.485089e-14   5.892792e-04   2.818540e-18   30123490
  5.417605e-01   1.477620e-14   5.889187e-04   2.796294e-18   30334570
  5.438008e-01   1.470131e-14   5.889866e-04   2.772321e-18   30566524
  5.458411e-01   1.462205e-14   5.890413e-04   2.749125e-18   30798370
  5.478823e-01   1.454661e-14   5.894562e-04   2.724394e-18   31052026
  5.499229e-01   1.446864e-14   5.886551e-04   2.703928e-18   31241782
  5.519630e-01   1.439215e-14   5.891853e-04   2.679117e-18   31502128
  5.540036e-01   1.432144e-14   5.889524e-04   2.659031e-18   31721474
  5.560439e-01   1.424060e-14   5.890206e-04   2.635442e-18   31960210
  5.580845e-01   1.416202e-14   5.890910e-04   2.612509e-18   32200582
  5.601251e-01   1.409369e-14   5.889897e-04   2.592180e-18   32429512
  5.621660e-01   1.402061e-14   5.893423e-04   2.569356e-18   32685226
  5.642068e-01   1.394165e-14   5.889439e-04   2.548224e-18   32900830
  5.662468e-01   1.386781e-14   5.888631e-04   2.526216e-18   33135682
  5.682871e-01   1.379199e-14   5.890598e-04   2.506935e-18   33385288
  5.703276e-01   1.371405e-14   5.890887e-04   2.483291e-18   33625706
  5.723684e-01   1.364207e-14   5.891781e-04   2.462619e-18   33873550
  5.744087e-01   1.356523e-14   5.887629e-04   2.443560e-18   34091770
