# power spectrum of delta
# redshift z=2.924548
# k              Pk             sigma(k)       sigma(Pk)      count
  1.554082e-03   1.854649e-07   3.849967e-04   2.200606e-08   146
  3.315891e-03   2.699655e-06   5.645617e-04   1.031338e-07   1042
  5.255560e-03   1.309337e-05   5.631710e-04   2.794086e-07   2698
  7.226238e-03   4.034235e-05   5.714963e-04   5.975615e-07   5206
  9.236952e-03   9.373998e-05   5.879031e-04   1.079845e-06   8752
  1.128500e-02   1.840520e-04   5.950186e-04   1.644175e-06   13258
  1.332029e-02   3.198439e-04   5.812860e-04   2.432567e-06   18070
  1.533799e-02   4.956487e-04   5.833601e-04   3.235929e-06   24050
  1.738769e-02   7.182720e-04   5.989399e-04   4.076268e-06   31720
  1.943477e-02   9.927202e-04   5.849109e-04   5.044401e-06   38722
  2.146405e-02   1.293346e-03   5.862639e-04   6.024387e-06   47398
  2.349979e-02   1.641742e-03   5.882944e-04   6.887788e-06   56986
  2.554151e-02   2.032017e-03   5.907046e-04   7.901116e-06   67552
  2.758014e-02   2.471628e-03   5.872674e-04   8.858388e-06   78310
  2.961557e-02   2.868824e-03   5.882808e-04   9.613546e-06   90514
  3.164924e-02   3.350528e-03   5.857631e-04   1.055715e-05   102938
  3.368563e-02   3.778173e-03   5.901325e-04   1.106066e-05   117412
  3.572860e-02   4.327498e-03   5.900212e-04   1.190576e-05   132106
  3.776869e-02   4.841753e-03   5.879385e-04   1.263707e-05   147154
  3.980581e-02   5.350634e-03   5.881164e-04   1.324720e-05   163522
  4.184971e-02   5.933707e-03   5.917380e-04   1.394119e-05   181804
  4.388716e-02   6.525793e-03   5.852792e-04   1.479198e-05   197722
  4.592521e-02   7.162835e-03   5.913571e-04   1.531519e-05   218866
  4.796858e-02   7.930256e-03   5.883333e-04   1.627098e-05   237542
  5.000645e-02   8.635400e-03   5.882751e-04   1.702066e-05   258136
  5.204613e-02   9.433532e-03   5.892119e-04   1.787457e-05   280066
  5.408484e-02   1.023965e-02   5.879532e-04   1.870495e-05   301774
  5.612494e-02   1.115565e-02   5.897386e-04   1.950705e-05   326050
  5.816725e-02   1.216324e-02   5.892357e-04   2.064436e-05   349792
  6.020894e-02   1.317354e-02   5.898220e-04   2.158868e-05   375154
  6.224878e-02   1.419616e-02   5.878390e-04   2.257994e-05   399742
  6.428502e-02   1.533804e-02   5.877282e-04   2.352433e-05   426266
  6.632420e-02   1.637043e-02   5.892967e-04   2.431598e-05   454960
  6.836448e-02   1.748504e-02   5.887382e-04   2.518260e-05   482734
  7.040483e-02   1.860870e-02   5.895060e-04   2.602247e-05   512746
  7.244666e-02   1.968750e-02   5.892082e-04   2.672453e-05   542746
  7.448833e-02   2.058062e-02   5.895081e-04   2.718285e-05   573952
  7.652873e-02   2.157067e-02   5.886192e-04   2.789515e-05   604918
  7.856782e-02   2.258695e-02   5.887181e-04   2.832611e-05   637666
  8.060887e-02   2.339283e-02   5.897344e-04   2.848254e-05   672482
  8.265024e-02   2.431746e-02   5.887854e-04   2.895980e-05   705748
  8.468883e-02   2.502895e-02   5.884884e-04   2.901959e-05   740482
  8.673009e-02   2.571176e-02   5.901845e-04   2.908862e-05   779026
  8.877006e-02   2.635530e-02   5.875992e-04   2.924539e-05   812614
  9.081033e-02   2.706456e-02   5.902277e-04   2.930493e-05   854200
  9.285241e-02   2.775295e-02   5.887737e-04   2.943261e-05   890746
  9.489189e-02   2.844297e-02   5.888028e-04   2.944284e-05   930394
  9.693174e-02   2.918191e-02   5.888121e-04   2.965598e-05   970982
  9.897209e-02   2.990090e-02   5.890745e-04   2.973225e-05   1012600
  1.010137e-01   3.073475e-02   5.897237e-04   2.996926e-05   1055890
  1.030542e-01   3.158686e-02   5.884073e-04   3.028319e-05   1096630
  1.050933e-01   3.245947e-02   5.887890e-04   3.041256e-05   1141378
  1.071337e-01   3.347533e-02   5.890564e-04   3.078561e-05   1186552
  1.091740e-01   3.460632e-02   5.889981e-04   3.123085e-05   1231798
  1.112148e-01   3.573561e-02   5.893633e-04   3.168423e-05   1279234
  1.132559e-01   3.703817e-02   5.890093e-04   3.222783e-05   1325906
  1.152965e-01   3.837937e-02   5.891197e-04   3.278135e-05   1374352
  1.173364e-01   3.972162e-02   5.886007e-04   3.337380e-05   1421950
  1.193758e-01   4.129152e-02   5.890300e-04   3.405739e-05   1472962
  1.214157e-01   4.264457e-02   5.886064e-04   3.460438e-05   1522954
  1.234545e-01   4.403820e-02   5.884752e-04   3.513438e-05   1573804
  1.254965e-01   4.552539e-02   5.906693e-04   3.564444e-05   1632274
  1.275390e-01   4.693376e-02   5.886302e-04   3.622838e-05   1680226
  1.295769e-01   4.821922e-02   5.879889e-04   3.674776e-05   1732682
  1.316167e-01   4.947115e-02   5.894980e-04   3.696694e-05   1792204
  1.336589e-01   5.077491e-02   5.896575e-04   3.734728e-05   1848298
  1.356989e-01   5.184804e-02   5.883050e-04   3.768919e-05   1901050
  1.377383e-01   5.281228e-02   5.890297e-04   3.773008e-05   1961326
  1.397792e-01   5.365478e-02   5.892228e-04   3.782934e-05   2020312
  1.418209e-01   5.457793e-02   5.895741e-04   3.787781e-05   2080930
  1.438627e-01   5.526533e-02   5.893024e-04   3.777832e-05   2140390
  1.459026e-01   5.594666e-02   5.883405e-04   3.783775e-05   2198162
  1.479427e-01   5.651069e-02   5.893956e-04   3.758174e-05   2263864
  1.499842e-01   5.712749e-02   5.893769e-04   3.748274e-05   2326426
  1.520249e-01   5.766364e-02   5.889045e-04   3.734516e-05   2388550
  1.540650e-01   5.809578e-02   5.888570e-04   3.709327e-05   2453098
  1.561047e-01   5.868011e-02   5.886971e-04   3.700965e-05   2517592
  1.581449e-01   5.938886e-02   5.892905e-04   3.702748e-05   2586070
  1.601854e-01   5.997384e-02   5.889181e-04   3.685796e-05   2651842
  1.622257e-01   6.065347e-02   5.889579e-04   3.673247e-05   2720330
  1.642669e-01   6.145900e-02   5.894439e-04   3.685161e-05   2791156
  1.663078e-01   6.235616e-02   5.889934e-04   3.692985e-05   2858554
  1.683481e-01   6.330834e-02   5.890635e-04   3.701348e-05   2929594
  1.703877e-01   6.436255e-02   5.885431e-04   3.718211e-05   2998762
  1.724278e-01   6.546302e-02   5.891948e-04   3.738913e-05   3074188
  1.744675e-01   6.679703e-02   5.885376e-04   3.768714e-05   3143482
  1.765088e-01   6.798053e-02   5.900653e-04   3.786056e-05   3226186
  1.785498e-01   6.934383e-02   5.882615e-04   3.832758e-05   3291158
  1.805901e-01   7.069599e-02   5.897179e-04   3.850661e-05   3375112
  1.826317e-01   7.215005e-02   5.890290e-04   3.890112e-05   3447658
  1.846719e-01   7.349728e-02   5.889171e-04   3.920458e-05   3524626
  1.867120e-01   7.484385e-02   5.888543e-04   3.951170e-05   3602998
  1.887512e-01   7.621575e-02   5.883706e-04   3.978819e-05   3678592
  1.907908e-01   7.751586e-02   5.892546e-04   3.997674e-05   3764122
  1.928324e-01   7.867152e-02   5.894579e-04   4.017626e-05   3846598
  1.948727e-01   7.990114e-02   5.885077e-04   4.035864e-05   3922250
  1.969136e-01   8.088148e-02   5.896943e-04   4.044160e-05   4013032
  1.989552e-01   8.187495e-02   5.889700e-04   4.050210e-05   4091182
  2.009950e-01   8.276967e-02   5.887664e-04   4.058755e-05   4174282
  2.030353e-01   8.353111e-02   5.891040e-04   4.053441e-05   4261978
  2.050762e-01   8.418145e-02   5.892160e-04   4.041327e-05   4348624
  2.071163e-01   8.490493e-02   5.886637e-04   4.040392e-05   4431430
  2.091564e-01   8.537621e-02   5.892138e-04   4.023192e-05   4523290
  2.111972e-01   8.600850e-02   5.891043e-04   4.012046e-05   4611386
  2.132376e-01   8.659550e-02   5.888473e-04   4.001924e-05   4698814
  2.152782e-01   8.708789e-02   5.893426e-04   3.983901e-05   4792984
  2.173194e-01   8.758727e-02   5.892017e-04   3.969218e-05   4883194
  2.193596e-01   8.795166e-02   5.887755e-04   3.953462e-05   4971694
  2.214001e-01   8.855164e-02   5.893212e-04   3.941203e-05   5069434
  2.234405e-01   8.920559e-02   5.886957e-04   3.937745e-05   5157736
  2.254804e-01   8.983018e-02   5.891220e-04   3.932561e-05   5256202
  2.275212e-01   9.048051e-02   5.891252e-04   3.920121e-05   5351990
  2.295614e-01   9.119119e-02   5.887454e-04   3.915332e-05   5444914
  2.316024e-01   9.206108e-02   5.895775e-04   3.913746e-05   5550088
  2.336441e-01   9.295318e-02   5.892314e-04   3.921106e-05   5644774
  2.356844e-01   9.387229e-02   5.887291e-04   3.925131e-05   5739034
  2.377243e-01   9.484868e-02   5.889493e-04   3.935800e-05   5841154
  2.397648e-01   9.582406e-02   5.891188e-04   3.935795e-05   5943448
  2.418057e-01   9.696549e-02   5.891894e-04   3.955784e-05   6045670
  2.438457e-01   9.807426e-02   5.886738e-04   3.966830e-05   6142586
  2.458857e-01   9.905260e-02   5.890965e-04   3.970036e-05   6250738
  2.479269e-01   1.002755e-01   5.893339e-04   3.989995e-05   6357172
  2.499678e-01   1.013065e-01   5.890271e-04   3.995731e-05   6458506
  2.520084e-01   1.024256e-01   5.891472e-04   4.010236e-05   6566290
  2.540484e-01   1.032994e-01   5.886483e-04   4.013576e-05   6667414
  2.560881e-01   1.042978e-01   5.889729e-04   4.015250e-05   6778336
  2.581289e-01   1.053869e-01   5.893065e-04   4.026416e-05   6890218
  2.601690e-01   1.062363e-01   5.886464e-04   4.030700e-05   6992306
  2.622097e-01   1.070498e-01   5.895050e-04   4.029816e-05   7113454
  2.642508e-01   1.078111e-01   5.888931e-04   4.028871e-05   7216216
  2.662907e-01   1.085152e-01   5.889220e-04   4.018202e-05   7328218
  2.683311e-01   1.091143e-01   5.891504e-04   4.015512e-05   7444414
  2.703714e-01   1.097647e-01   5.887477e-04   4.010514e-05   7553290
  2.724122e-01   1.102774e-01   5.894442e-04   3.992212e-05   7676368
  2.744529e-01   1.109117e-01   5.888427e-04   3.995844e-05   7783150
  2.764932e-01   1.114006e-01   5.891771e-04   3.976434e-05   7904570
  2.785337e-01   1.118148e-01   5.888377e-04   3.968777e-05   8017570
  2.805747e-01   1.123486e-01   5.894749e-04   3.954954e-05   8143840
  2.826158e-01   1.128998e-01   5.889589e-04   3.946048e-05   8255134
  2.846555e-01   1.133012e-01   5.886996e-04   3.935166e-05   8371450
  2.866957e-01   1.138736e-01   5.891278e-04   3.925173e-05   8498578
  2.887371e-01   1.144076e-01   5.893995e-04   3.914243e-05   8623180
  2.907783e-01   1.149551e-01   5.891794e-04   3.906680e-05   8742034
  2.928185e-01   1.154912e-01   5.887409e-04   3.900504e-05   8859194
  2.948582e-01   1.162135e-01   5.888043e-04   3.898295e-05   8984386
  2.968984e-01   1.168695e-01   5.889953e-04   3.891327e-05   9111652
  2.989394e-01   1.175440e-01   5.894313e-04   3.884801e-05   9243322
  3.009801e-01   1.182319e-01   5.888434e-04   3.888902e-05   9361378
  3.030204e-01   1.190513e-01   5.890316e-04   3.889531e-05   9491998
  3.050606e-01   1.197940e-01   5.889315e-04   3.885862e-05   9618016
  3.071010e-01   1.205448e-01   5.891205e-04   3.884477e-05   9750178
  3.091413e-01   1.212229e-01   5.888404e-04   3.878907e-05   9875558
  3.111820e-01   1.221882e-01   5.893640e-04   3.886534e-05   10015834
  3.132223e-01   1.227654e-01   5.885801e-04   3.882663e-05   10133344
  3.152627e-01   1.236137e-01   5.895529e-04   3.880791e-05   10282522
  3.173040e-01   1.243589e-01   5.889812e-04   3.882220e-05   10406974
  3.193437e-01   1.249539e-01   5.886096e-04   3.876409e-05   10534378
  3.213841e-01   1.257697e-01   5.894405e-04   3.872679e-05   10684456
  3.234254e-01   1.265154e-01   5.890917e-04   3.873408e-05   10813894
  3.254654e-01   1.271017e-01   5.887488e-04   3.868721e-05   10944626
  3.275058e-01   1.277187e-01   5.892300e-04   3.865380e-05   11091802
  3.295466e-01   1.283110e-01   5.889694e-04   3.859313e-05   11224756
  3.315871e-01   1.287797e-01   5.891399e-04   3.848194e-05   11367730
  3.336279e-01   1.293290e-01   5.891097e-04   3.841627e-05   11507890
  3.356680e-01   1.298710e-01   5.886912e-04   3.837286e-05   11640658
  3.377084e-01   1.303231e-01   5.893412e-04   3.827141e-05   11795380
  3.397495e-01   1.307558e-01   5.891216e-04   3.815044e-05   11933434
  3.417900e-01   1.311882e-01   5.889963e-04   3.807721e-05   12074954
  3.438308e-01   1.317536e-01   5.892532e-04   3.802729e-05   12225142
  3.458709e-01   1.321198e-01   5.885745e-04   3.793763e-05   12356104
  3.479106e-01   1.325243e-01   5.891058e-04   3.780480e-05   12513442
  3.499516e-01   1.330333e-01   5.892873e-04   3.772805e-05   12664810
  3.519928e-01   1.333480e-01   5.891937e-04   3.763477e-05   12811246
  3.540334e-01   1.338007e-01   5.889181e-04   3.752003e-05   12953536
  3.560735e-01   1.343654e-01   5.890044e-04   3.750569e-05   13105042
  3.581140e-01   1.347016e-01   5.891192e-04   3.735886e-05   13258670
  3.601546e-01   1.352926e-01   5.890325e-04   3.735294e-05   13408738
  3.621953e-01   1.357961e-01   5.890899e-04   3.727406e-05   13562320
  3.642355e-01   1.363101e-01   5.888450e-04   3.723184e-05   13709062
  3.662757e-01   1.367481e-01   5.891202e-04   3.714141e-05   13870258
  3.683171e-01   1.372763e-01   5.894186e-04   3.707378e-05   14032714
  3.703575e-01   1.377998e-01   5.886241e-04   3.704437e-05   14169232
  3.723976e-01   1.383283e-01   5.891956e-04   3.696597e-05   14339422
  3.744381e-01   1.388956e-01   5.888919e-04   3.693722e-05   14489330
  3.764785e-01   1.392797e-01   5.891282e-04   3.683167e-05   14654458
  3.785190e-01   1.397884e-01   5.889293e-04   3.679491e-05   14808292
  3.805593e-01   1.403745e-01   5.890179e-04   3.673996e-05   14970130
  3.825997e-01   1.409563e-01   5.890254e-04   3.671730e-05   15131626
  3.846399e-01   1.413282e-01   5.888648e-04   3.662771e-05   15289198
  3.866807e-01   1.418229e-01   5.894136e-04   3.654524e-05   15466552
  3.887217e-01   1.422622e-01   5.889267e-04   3.650306e-05   15616714
  3.907617e-01   1.427759e-01   5.889009e-04   3.645085e-05   15780506
  3.928022e-01   1.431419e-01   5.891699e-04   3.636187e-05   15953542
  3.948433e-01   1.436437e-01   5.892495e-04   3.629265e-05   16121296
  3.968834e-01   1.440184e-01   5.886227e-04   3.624017e-05   16270762
  3.989235e-01   1.442636e-01   5.892919e-04   3.608361e-05   16457182
  4.009646e-01   1.448016e-01   5.891739e-04   3.603003e-05   16623562
  4.030052e-01   1.450463e-01   5.889160e-04   3.594386e-05   16785784
  4.050455e-01   1.454513e-01   5.890644e-04   3.587718e-05   16959370
  4.070861e-01   1.457844e-01   5.891235e-04   3.578498e-05   17132774
  4.091266e-01   1.461214e-01   5.889569e-04   3.571413e-05   17300602
  4.111672e-01   1.463037e-01   5.891834e-04   3.558452e-05   17480656
  4.132078e-01   1.467436e-01   5.889644e-04   3.552960e-05   17647558
  4.152481e-01   1.470737e-01   5.890172e-04   3.545191e-05   17823778
  4.172887e-01   1.474796e-01   5.890581e-04   3.535069e-05   18001594
  4.193290e-01   1.478577e-01   5.888841e-04   3.530586e-05   18172300
  4.213694e-01   1.480273e-01   5.891306e-04   3.519673e-05   18356770
  4.234105e-01   1.483956e-01   5.893313e-04   3.510923e-05   18541082
  4.254516e-01   1.487132e-01   5.891095e-04   3.502534e-05   18713914
  4.274917e-01   1.490441e-01   5.886533e-04   3.495717e-05   18879742
  4.295318e-01   1.493757e-01   5.892187e-04   3.487375e-05   19077592
  4.315727e-01   1.496674e-01   5.891074e-04   3.477378e-05   19255474
  4.336133e-01   1.499941e-01   5.890497e-04   3.468860e-05   19436278
  4.356531e-01   1.503372e-01   5.886327e-04   3.465446e-05   19605994
  4.376936e-01   1.507392e-01   5.894559e-04   3.457294e-05   19817344
  4.397347e-01   1.511204e-01   5.889775e-04   3.451068e-05   19985702
  4.417750e-01   1.513223e-01   5.890630e-04   3.443855e-05   20175730
  4.438152e-01   1.516177e-01   5.887860e-04   3.434510e-05   20352682
  4.458557e-01   1.519620e-01   5.893597e-04   3.427402e-05   20559616
  4.478969e-01   1.522139e-01   5.891648e-04   3.417105e-05   20741518
  4.499369e-01   1.526289e-01   5.886230e-04   3.414944e-05   20912026
  4.519768e-01   1.528931e-01   5.891225e-04   3.405577e-05   21121018
  4.540176e-01   1.532475e-01   5.890883e-04   3.398159e-05   21310012
  4.560579e-01   1.534540e-01   5.889301e-04   3.391226e-05   21496154
  4.580989e-01   1.537174e-01   5.893557e-04   3.380894e-05   21705946
  4.601398e-01   1.539644e-01   5.889070e-04   3.373227e-05   21882562
  4.621802e-01   1.542576e-01   5.891458e-04   3.365016e-05   22085428
  4.642214e-01   1.545405e-01   5.893143e-04   3.359163e-05   22287106
  4.662615e-01   1.546967e-01   5.885500e-04   3.348416e-05   22455010
  4.683013e-01   1.550399e-01   5.890571e-04   3.344998e-05   22671694
  4.703421e-01   1.551562e-01   5.892012e-04   3.332571e-05   22874368
  4.723830e-01   1.555113e-01   5.891203e-04   3.326958e-05   23070146
  4.744235e-01   1.556335e-01   5.889653e-04   3.318628e-05   23264038
  4.764637e-01   1.557809e-01   5.889570e-04   3.308984e-05   23464210
  4.785045e-01   1.560617e-01   5.893101e-04   3.299917e-05   23679208
  4.805453e-01   1.562672e-01   5.889894e-04   3.292186e-05   23868658
  4.825856e-01   1.564465e-01   5.889440e-04   3.282479e-05   24070582
  4.846259e-01   1.566465e-01   5.890549e-04   3.274787e-05   24278842
  4.866664e-01   1.569000e-01   5.890268e-04   3.269071e-05   24482272
  4.887069e-01   1.570970e-01   5.890750e-04   3.261428e-05   24689510
  4.907474e-01   1.572597e-01   5.890195e-04   3.251570e-05   24894634
  4.927881e-01   1.575169e-01   5.891565e-04   3.243448e-05   25108474
  4.948289e-01   1.576429e-01   5.890919e-04   3.236471e-05   25313116
  4.968692e-01   1.578579e-01   5.889389e-04   3.228614e-05   25515970
  4.989095e-01   1.579806e-01   5.889848e-04   3.219347e-05   25727962
  5.009501e-01   1.582200e-01   5.892016e-04   3.211227e-05   25948954
  5.029911e-01   1.583730e-01   5.891242e-04   3.203495e-05   26157220
  5.050312e-01   1.585555e-01   5.887329e-04   3.195870e-05   26351546
  5.070713e-01   1.587147e-01   5.891599e-04   3.188540e-05   26585314
  5.091124e-01   1.589035e-01   5.891783e-04   3.179458e-05   26800630
  5.111529e-01   1.590698e-01   5.889142e-04   3.173912e-05   27003376
  5.131928e-01   1.592773e-01   5.887939e-04   3.166218e-05   27213202
  5.152333e-01   1.593785e-01   5.893371e-04   3.155594e-05   27455194
  5.172745e-01   1.595164e-01   5.891605e-04   3.148750e-05   27666070
  5.193150e-01   1.597458e-01   5.888642e-04   3.142596e-05   27870280
  5.213548e-01   1.598805e-01   5.888416e-04   3.135153e-05   28088090
  5.233952e-01   1.600407e-01   5.892064e-04   3.126515e-05   28326262
  5.254363e-01   1.601807e-01   5.891855e-04   3.118866e-05   28546906
  5.274771e-01   1.603419e-01   5.890514e-04   3.113200e-05   28762552
  5.295175e-01   1.604139e-01   5.889643e-04   3.104755e-05   28979734
  5.315579e-01   1.605163e-01   5.891116e-04   3.094554e-05   29211106
  5.335984e-01   1.606476e-01   5.890058e-04   3.086199e-05   29431738
  5.356386e-01   1.607884e-01   5.888449e-04   3.080973e-05   29648776
  5.376788e-01   1.609615e-01   5.891295e-04   3.074408e-05   29888654
  5.397198e-01   1.610057e-01   5.892792e-04   3.063321e-05   30123490
  5.417605e-01   1.611456e-01   5.889187e-04   3.057361e-05   30334570
  5.438008e-01   1.612626e-01   5.889866e-04   3.048689e-05   30566524
  5.458411e-01   1.613368e-01   5.890413e-04   3.041617e-05   30798370
  5.478823e-01   1.614075e-01   5.894562e-04   3.031496e-05   31052026
  5.499229e-01   1.615003e-01   5.886551e-04   3.026266e-05   31241782
  5.519630e-01   1.615634e-01   5.891853e-04   3.015875e-05   31502128
  5.540036e-01   1.616916e-01   5.889524e-04   3.010600e-05   31721474
  5.560439e-01   1.617322e-01   5.890206e-04   3.001911e-05   31960210
  5.580845e-01   1.617820e-01   5.890910e-04   2.992984e-05   32200582
  5.601251e-01   1.619498e-01   5.889897e-04   2.987722e-05   32429512
  5.621660e-01   1.620686e-01   5.893423e-04   2.979239e-05   32685226
  5.642068e-01   1.620775e-01   5.889439e-04   2.971396e-05   32900830
  5.662468e-01   1.621717e-01   5.888631e-04   2.963342e-05   33135682
  5.682871e-01   1.622169e-01   5.890598e-04   2.958732e-05   33385288
  5.703276e-01   1.622455e-01   5.890887e-04   2.947296e-05   33625706
  5.723684e-01   1.623508e-01   5.891781e-04   2.940386e-05   33873550
  5.744087e-01   1.623708e-01   5.887629e-04   2.934669e-05   34091770
  5.764491e-01   1.624758e-01   5.892514e-04   2.928976e-05   34362160
