# power spectrum of delta_kessence
# redshift z=1.972697
# k              Pk             sigma(k)       sigma(Pk)      count
  1.554082e-03   3.657115e-10   3.849967e-04   4.071027e-11   146
  3.315891e-03   3.692329e-09   5.645617e-04   1.373660e-10   1042
  5.255560e-03   1.647532e-08   5.631710e-04   3.494307e-10   2698
  7.226238e-03   4.923328e-08   5.714963e-04   7.275426e-10   5206
  9.236952e-03   1.128319e-07   5.879031e-04   1.298658e-09   8752
  1.128500e-02   2.199199e-07   5.950186e-04   1.963587e-09   13258
  1.332029e-02   3.805189e-07   5.812860e-04   2.893198e-09   18070
  1.533799e-02   5.880485e-07   5.833601e-04   3.838434e-09   24050
  1.738769e-02   8.505528e-07   5.989399e-04   4.825981e-09   31720
  1.943477e-02   1.174089e-06   5.849109e-04   5.965855e-09   38722
  2.146405e-02   1.528033e-06   5.862639e-04   7.118031e-09   47398
  2.349979e-02   1.938087e-06   5.882944e-04   8.130865e-09   56986
  2.554151e-02   2.396929e-06   5.907046e-04   9.319310e-09   67552
  2.758014e-02   2.914177e-06   5.872674e-04   1.044506e-08   78310
  2.961557e-02   3.380721e-06   5.882808e-04   1.132818e-08   90514
  3.164924e-02   3.946666e-06   5.857631e-04   1.243561e-08   102938
  3.368563e-02   4.448472e-06   5.901325e-04   1.302180e-08   117412
  3.572860e-02   5.093263e-06   5.900212e-04   1.401254e-08   132106
  3.776869e-02   5.695995e-06   5.879385e-04   1.486850e-08   147154
  3.980581e-02   6.292284e-06   5.881164e-04   1.557784e-08   163522
  4.184971e-02   6.973401e-06   5.917380e-04   1.637971e-08   181804
  4.388716e-02   7.667501e-06   5.852792e-04   1.737942e-08   197722
  4.592521e-02   8.412542e-06   5.913571e-04   1.798240e-08   218866
  4.796858e-02   9.311308e-06   5.883333e-04   1.910396e-08   237542
  5.000645e-02   1.013505e-05   5.882751e-04   1.997491e-08   258136
  5.204613e-02   1.106591e-05   5.892119e-04   2.096889e-08   280066
  5.408484e-02   1.200815e-05   5.879532e-04   2.193724e-08   301774
  5.612494e-02   1.307507e-05   5.897386e-04   2.286525e-08   326050
  5.816725e-02   1.424478e-05   5.892357e-04   2.417543e-08   349792
  6.020894e-02   1.542452e-05   5.898220e-04   2.528671e-08   375154
  6.224878e-02   1.661171e-05   5.878390e-04   2.642332e-08   399742
  6.428502e-02   1.794114e-05   5.877282e-04   2.751117e-08   426266
  6.632420e-02   1.914306e-05   5.892967e-04   2.843355e-08   454960
  6.836448e-02   2.043186e-05   5.887382e-04   2.942828e-08   482734
  7.040483e-02   2.172778e-05   5.895060e-04   3.037821e-08   512746
  7.244666e-02   2.297757e-05   5.892082e-04   3.119187e-08   542746
  7.448833e-02   2.400282e-05   5.895081e-04   3.169841e-08   573952
  7.652873e-02   2.513943e-05   5.886192e-04   3.251516e-08   604918
  7.856782e-02   2.630384e-05   5.887181e-04   3.298258e-08   637666
  8.060887e-02   2.721881e-05   5.897344e-04   3.313649e-08   672482
  8.265024e-02   2.826696e-05   5.887854e-04   3.365717e-08   705748
  8.468883e-02   2.906615e-05   5.884884e-04   3.369996e-08   740482
  8.673009e-02   2.983863e-05   5.901845e-04   3.375891e-08   779026
  8.877006e-02   3.055214e-05   5.875992e-04   3.389936e-08   812614
  9.081033e-02   3.133801e-05   5.902277e-04   3.393275e-08   854200
  9.285241e-02   3.211087e-05   5.887737e-04   3.404797e-08   890746
  9.489189e-02   3.286667e-05   5.888028e-04   3.401879e-08   930394
  9.693174e-02   3.368060e-05   5.888121e-04   3.423720e-08   970982
  9.897209e-02   3.448082e-05   5.890745e-04   3.428601e-08   1012600
  1.010137e-01   3.537798e-05   5.897237e-04   3.449519e-08   1055890
  1.030542e-01   3.632511e-05   5.884073e-04   3.483764e-08   1096630
  1.050933e-01   3.729299e-05   5.887890e-04   3.494754e-08   1141378
  1.071337e-01   3.841908e-05   5.890564e-04   3.532787e-08   1186552
  1.091740e-01   3.966157e-05   5.889981e-04   3.579052e-08   1231798
  1.112148e-01   4.092464e-05   5.893633e-04   3.628214e-08   1279234
  1.132559e-01   4.237214e-05   5.890093e-04   3.686626e-08   1325906
  1.152965e-01   4.386679e-05   5.891197e-04   3.747537e-08   1374352
  1.173364e-01   4.534776e-05   5.886007e-04   3.810829e-08   1421950
  1.193758e-01   4.708561e-05   5.890300e-04   3.884305e-08   1472962
  1.214157e-01   4.859519e-05   5.886064e-04   3.942607e-08   1522954
  1.234545e-01   5.013569e-05   5.884752e-04   4.001899e-08   1573804
  1.254965e-01   5.177847e-05   5.906693e-04   4.054136e-08   1632274
  1.275390e-01   5.331253e-05   5.886302e-04   4.114804e-08   1680226
  1.295769e-01   5.472054e-05   5.879889e-04   4.169219e-08   1732682
  1.316167e-01   5.609875e-05   5.894980e-04   4.191997e-08   1792204
  1.336589e-01   5.747694e-05   5.896575e-04   4.227658e-08   1848298
  1.356989e-01   5.860901e-05   5.883050e-04   4.261901e-08   1901050
  1.377383e-01   5.960134e-05   5.890297e-04   4.255940e-08   1961326
  1.397792e-01   6.046030e-05   5.892228e-04   4.263406e-08   2020312
  1.418209e-01   6.140501e-05   5.895741e-04   4.261161e-08   2080930
  1.438627e-01   6.206473e-05   5.893024e-04   4.244155e-08   2140390
  1.459026e-01   6.272182e-05   5.883405e-04   4.241055e-08   2198162
  1.479427e-01   6.321884e-05   5.893956e-04   4.203886e-08   2263864
  1.499842e-01   6.377381e-05   5.893769e-04   4.182629e-08   2326426
  1.520249e-01   6.422905e-05   5.889045e-04   4.157050e-08   2388550
  1.540650e-01   6.458520e-05   5.888570e-04   4.121978e-08   2453098
  1.561047e-01   6.509879e-05   5.886971e-04   4.105028e-08   2517592
  1.581449e-01   6.574728e-05   5.892905e-04   4.099273e-08   2586070
  1.601854e-01   6.623595e-05   5.889181e-04   4.070064e-08   2651842
  1.622257e-01   6.685048e-05   5.889579e-04   4.046143e-08   2720330
  1.642669e-01   6.759712e-05   5.894439e-04   4.053600e-08   2791156
  1.663078e-01   6.844953e-05   5.889934e-04   4.053877e-08   2858554
  1.683481e-01   6.936272e-05   5.890635e-04   4.054206e-08   2929594
  1.703877e-01   7.038839e-05   5.885431e-04   4.065396e-08   2998762
  1.724278e-01   7.146571e-05   5.891948e-04   4.081007e-08   3074188
  1.744675e-01   7.280377e-05   5.885376e-04   4.105975e-08   3143482
  1.765088e-01   7.400730e-05   5.900653e-04   4.121066e-08   3226186
  1.785498e-01   7.533617e-05   5.882615e-04   4.164365e-08   3291158
  1.805901e-01   7.672072e-05   5.897179e-04   4.178526e-08   3375112
  1.826317e-01   7.819080e-05   5.890290e-04   4.215269e-08   3447658
  1.846719e-01   7.952504e-05   5.889171e-04   4.241187e-08   3524626
  1.867120e-01   8.086554e-05   5.888543e-04   4.268722e-08   3602998
  1.887512e-01   8.220738e-05   5.883706e-04   4.290668e-08   3678592
  1.907908e-01   8.343764e-05   5.892546e-04   4.301563e-08   3764122
  1.928324e-01   8.457923e-05   5.894579e-04   4.318163e-08   3846598
  1.948727e-01   8.574709e-05   5.885077e-04   4.329882e-08   3922250
  1.969136e-01   8.663721e-05   5.896943e-04   4.332436e-08   4013032
  1.989552e-01   8.748852e-05   5.889700e-04   4.325718e-08   4091182
  2.009950e-01   8.824141e-05   5.887664e-04   4.326479e-08   4174282
  2.030353e-01   8.886003e-05   5.891040e-04   4.310183e-08   4261978
  2.050762e-01   8.932361e-05   5.892160e-04   4.286351e-08   4348624
  2.071163e-01   8.983690e-05   5.886637e-04   4.272519e-08   4431430
  2.091564e-01   9.010718e-05   5.892138e-04   4.244861e-08   4523290
  2.111972e-01   9.051380e-05   5.891043e-04   4.222167e-08   4611386
  2.132376e-01   9.084961e-05   5.888473e-04   4.197994e-08   4698814
  2.152782e-01   9.111455e-05   5.893426e-04   4.165468e-08   4792984
  2.173194e-01   9.138342e-05   5.892017e-04   4.138923e-08   4883194
  2.193596e-01   9.147920e-05   5.887755e-04   4.110161e-08   4971694
  2.214001e-01   9.180032e-05   5.893212e-04   4.084217e-08   5069434
  2.234405e-01   9.225207e-05   5.886957e-04   4.070197e-08   5157736
  2.254804e-01   9.262118e-05   5.891220e-04   4.053985e-08   5256202
  2.275212e-01   9.303099e-05   5.891252e-04   4.029525e-08   5351990
  2.295614e-01   9.354028e-05   5.887454e-04   4.014687e-08   5444914
  2.316024e-01   9.417519e-05   5.895775e-04   4.001934e-08   5550088
  2.336441e-01   9.485446e-05   5.892314e-04   3.998068e-08   5644774
  2.356844e-01   9.553200e-05   5.887291e-04   3.993589e-08   5739034
  2.377243e-01   9.633959e-05   5.889493e-04   3.995963e-08   5841154
  2.397648e-01   9.710500e-05   5.891188e-04   3.987014e-08   5943448
  2.418057e-01   9.801472e-05   5.891894e-04   3.995013e-08   6045670
  2.438457e-01   9.896381e-05   5.886738e-04   4.000597e-08   6142586
  2.458857e-01   9.975608e-05   5.890965e-04   3.996022e-08   6250738
  2.479269e-01   1.007119e-04   5.893339e-04   4.005365e-08   6357172
  2.499678e-01   1.015308e-04   5.890271e-04   4.001742e-08   6458506
  2.520084e-01   1.024230e-04   5.891472e-04   4.006067e-08   6566290
  2.540484e-01   1.030675e-04   5.886483e-04   4.002074e-08   6667414
  2.560881e-01   1.038152e-04   5.889729e-04   3.994079e-08   6778336
  2.581289e-01   1.046280e-04   5.893065e-04   3.993688e-08   6890218
  2.601690e-01   1.051974e-04   5.886464e-04   3.988664e-08   6992306
  2.622097e-01   1.057165e-04   5.895050e-04   3.977304e-08   7113454
  2.642508e-01   1.061869e-04   5.888931e-04   3.965202e-08   7216216
  2.662907e-01   1.065583e-04   5.889220e-04   3.943718e-08   7328218
  2.683311e-01   1.068306e-04   5.891504e-04   3.928462e-08   7444414
  2.703714e-01   1.070785e-04   5.887477e-04   3.908258e-08   7553290
  2.724122e-01   1.072598e-04   5.894442e-04   3.880653e-08   7676368
  2.744529e-01   1.075394e-04   5.888427e-04   3.870903e-08   7783150
  2.764932e-01   1.075947e-04   5.891771e-04   3.838291e-08   7904570
  2.785337e-01   1.076395e-04   5.888377e-04   3.817336e-08   8017570
  2.805747e-01   1.077615e-04   5.894749e-04   3.789381e-08   8143840
  2.826158e-01   1.079154e-04   5.889589e-04   3.769038e-08   8255134
  2.846555e-01   1.079204e-04   5.886996e-04   3.744321e-08   8371450
  2.866957e-01   1.080686e-04   5.891278e-04   3.722180e-08   8498578
  2.887371e-01   1.082265e-04   5.893995e-04   3.699559e-08   8623180
  2.907783e-01   1.083850e-04   5.891794e-04   3.680344e-08   8742034
  2.928185e-01   1.085513e-04   5.887409e-04   3.662794e-08   8859194
  2.948582e-01   1.087982e-04   5.888043e-04   3.645857e-08   8984386
  2.968984e-01   1.090982e-04   5.889953e-04   3.629679e-08   9111652
  2.989394e-01   1.093928e-04   5.894313e-04   3.613226e-08   9243322
  3.009801e-01   1.096689e-04   5.888434e-04   3.604385e-08   9361378
  3.030204e-01   1.100735e-04   5.890316e-04   3.593147e-08   9491998
  3.050606e-01   1.104633e-04   5.889315e-04   3.579512e-08   9618016
  3.071010e-01   1.108431e-04   5.891205e-04   3.568995e-08   9750178
  3.091413e-01   1.110993e-04   5.888404e-04   3.551600e-08   9875558
  3.111820e-01   1.116972e-04   5.893640e-04   3.548783e-08   10015834
  3.132223e-01   1.118796e-04   5.885801e-04   3.534115e-08   10133344
  3.152627e-01   1.122941e-04   5.895529e-04   3.522208e-08   10282522
  3.173040e-01   1.126450e-04   5.889812e-04   3.512853e-08   10406974
  3.193437e-01   1.128266e-04   5.886096e-04   3.497084e-08   10534378
  3.213841e-01   1.131907e-04   5.894405e-04   3.481139e-08   10684456
  3.234254e-01   1.135129e-04   5.890917e-04   3.471061e-08   10813894
  3.254654e-01   1.136493e-04   5.887488e-04   3.456465e-08   10944626
  3.275058e-01   1.138147e-04   5.892300e-04   3.440836e-08   11091802
  3.295466e-01   1.139484e-04   5.889694e-04   3.423828e-08   11224756
  3.315871e-01   1.139368e-04   5.891399e-04   3.400285e-08   11367730
  3.336279e-01   1.140374e-04   5.891097e-04   3.383509e-08   11507890
  3.356680e-01   1.140856e-04   5.886912e-04   3.366641e-08   11640658
  3.377084e-01   1.140694e-04   5.893412e-04   3.347554e-08   11795380
  3.397495e-01   1.139971e-04   5.891216e-04   3.324226e-08   11933434
  3.417900e-01   1.139247e-04   5.889963e-04   3.303807e-08   12074954
  3.438308e-01   1.139585e-04   5.892532e-04   3.285533e-08   12225142
  3.458709e-01   1.138345e-04   5.885745e-04   3.265131e-08   12356104
  3.479106e-01   1.137267e-04   5.891058e-04   3.240687e-08   12513442
  3.499516e-01   1.137088e-04   5.892873e-04   3.221675e-08   12664810
  3.519928e-01   1.135502e-04   5.891937e-04   3.200457e-08   12811246
  3.540334e-01   1.134862e-04   5.889181e-04   3.178514e-08   12953536
  3.560735e-01   1.134981e-04   5.890044e-04   3.164836e-08   13105042
  3.581140e-01   1.133491e-04   5.891192e-04   3.139649e-08   13258670
  3.601546e-01   1.134016e-04   5.890325e-04   3.127102e-08   13408738
  3.621953e-01   1.133717e-04   5.890899e-04   3.108601e-08   13562320
  3.642355e-01   1.133983e-04   5.888450e-04   3.094872e-08   13709062
  3.662757e-01   1.133233e-04   5.891202e-04   3.071728e-08   13870258
  3.683171e-01   1.133245e-04   5.894186e-04   3.056567e-08   14032714
  3.703575e-01   1.133514e-04   5.886241e-04   3.044094e-08   14169232
  3.723976e-01   1.133677e-04   5.891956e-04   3.025849e-08   14339422
  3.744381e-01   1.133785e-04   5.888919e-04   3.011764e-08   14489330
  3.764785e-01   1.133042e-04   5.891282e-04   2.991871e-08   14654458
  3.785190e-01   1.133151e-04   5.889293e-04   2.979742e-08   14808292
  3.805593e-01   1.133338e-04   5.890179e-04   2.962164e-08   14970130
  3.825997e-01   1.133725e-04   5.890254e-04   2.949857e-08   15131626
  3.846399e-01   1.132718e-04   5.888648e-04   2.931985e-08   15289198
  3.866807e-01   1.132333e-04   5.894136e-04   2.914140e-08   15466552
  3.887217e-01   1.131311e-04   5.889267e-04   2.899221e-08   15616714
  3.907617e-01   1.130807e-04   5.889009e-04   2.883610e-08   15780506
  3.928022e-01   1.129131e-04   5.891699e-04   2.865200e-08   15953542
  3.948433e-01   1.128584e-04   5.892495e-04   2.847465e-08   16121296
  3.968834e-01   1.126895e-04   5.886227e-04   2.833347e-08   16270762
  3.989235e-01   1.124005e-04   5.892919e-04   2.808723e-08   16457182
  4.009646e-01   1.123425e-04   5.891739e-04   2.792415e-08   16623562
  4.030052e-01   1.120654e-04   5.889160e-04   2.774121e-08   16785784
  4.050455e-01   1.119150e-04   5.890644e-04   2.756802e-08   16959370
  4.070861e-01   1.116987e-04   5.891235e-04   2.738962e-08   17132774
  4.091266e-01   1.114081e-04   5.889569e-04   2.719587e-08   17300602
  4.111672e-01   1.110948e-04   5.891834e-04   2.698893e-08   17480656
  4.132078e-01   1.109200e-04   5.889644e-04   2.681661e-08   17647558
  4.152481e-01   1.106814e-04   5.890172e-04   2.665359e-08   17823778
  4.172887e-01   1.105441e-04   5.890581e-04   2.647128e-08   18001594
  4.193290e-01   1.103095e-04   5.888841e-04   2.631244e-08   18172300
  4.213694e-01   1.099604e-04   5.891306e-04   2.612191e-08   18356770
  4.234105e-01   1.097395e-04   5.893313e-04   2.595353e-08   18541082
  4.254516e-01   1.095017e-04   5.891095e-04   2.575853e-08   18713914
  4.274917e-01   1.092671e-04   5.886533e-04   2.561016e-08   18879742
  4.295318e-01   1.090257e-04   5.892187e-04   2.542094e-08   19077592
  4.315727e-01   1.087764e-04   5.891074e-04   2.523652e-08   19255474
  4.336133e-01   1.085315e-04   5.890497e-04   2.506704e-08   19436278
  4.356531e-01   1.083020e-04   5.886327e-04   2.494800e-08   19605994
  4.376936e-01   1.081217e-04   5.894559e-04   2.477736e-08   19817344
  4.397347e-01   1.079384e-04   5.889775e-04   2.461777e-08   19985702
  4.417750e-01   1.075817e-04   5.890630e-04   2.445302e-08   20175730
  4.438152e-01   1.073328e-04   5.887860e-04   2.429572e-08   20352682
  4.458557e-01   1.071124e-04   5.893597e-04   2.414159e-08   20559616
  4.478969e-01   1.068320e-04   5.891648e-04   2.397694e-08   20741518
  4.499369e-01   1.066210e-04   5.886230e-04   2.383220e-08   20912026
  4.519768e-01   1.063272e-04   5.891225e-04   2.366058e-08   21121018
  4.540176e-01   1.060763e-04   5.890883e-04   2.351795e-08   21310012
  4.560579e-01   1.057621e-04   5.889301e-04   2.335974e-08   21496154
  4.580989e-01   1.054806e-04   5.893557e-04   2.319356e-08   21705946
  4.601398e-01   1.051549e-04   5.889070e-04   2.302279e-08   21882562
  4.621802e-01   1.048745e-04   5.891458e-04   2.286980e-08   22085428
  4.642214e-01   1.045769e-04   5.893143e-04   2.271982e-08   22287106
  4.662615e-01   1.041919e-04   5.885500e-04   2.255085e-08   22455010
  4.683013e-01   1.039369e-04   5.890571e-04   2.241647e-08   22671694
  4.703421e-01   1.035097e-04   5.892012e-04   2.222328e-08   22874368
  4.723830e-01   1.032535e-04   5.891203e-04   2.209351e-08   23070146
  4.744235e-01   1.028723e-04   5.889653e-04   2.193441e-08   23264038
  4.764637e-01   1.024840e-04   5.889570e-04   2.176444e-08   23464210
  4.785045e-01   1.021628e-04   5.893101e-04   2.159678e-08   23679208
  4.805453e-01   1.017990e-04   5.889894e-04   2.144928e-08   23868658
  4.825856e-01   1.013910e-04   5.889440e-04   2.128567e-08   24070582
  4.846259e-01   1.010768e-04   5.890549e-04   2.112006e-08   24278842
  4.866664e-01   1.007012e-04   5.890268e-04   2.098613e-08   24482272
  4.887069e-01   1.003397e-04   5.890750e-04   2.083488e-08   24689510
  4.907474e-01   9.997787e-05   5.890195e-04   2.068307e-08   24894634
  4.927881e-01   9.965873e-05   5.891565e-04   2.053080e-08   25108474
  4.948289e-01   9.924492e-05   5.890919e-04   2.038200e-08   25313116
  4.968692e-01   9.890091e-05   5.889389e-04   2.023708e-08   25515970
  4.989095e-01   9.851787e-05   5.889848e-04   2.008692e-08   25727962
  5.009501e-01   9.815292e-05   5.892016e-04   1.993203e-08   25948954
  5.029911e-01   9.777760e-05   5.891242e-04   1.978973e-08   26157220
  5.050312e-01   9.741853e-05   5.887329e-04   1.965542e-08   26351546
  5.070713e-01   9.705557e-05   5.891599e-04   1.951464e-08   26585314
  5.091124e-01   9.668663e-05   5.891783e-04   1.936225e-08   26800630
  5.111529e-01   9.628672e-05   5.889142e-04   1.923286e-08   27003376
  5.131928e-01   9.594014e-05   5.887939e-04   1.909808e-08   27213202
  5.152333e-01   9.551545e-05   5.893371e-04   1.893739e-08   27455194
  5.172745e-01   9.513031e-05   5.891605e-04   1.880621e-08   27666070
  5.193150e-01   9.482343e-05   5.888642e-04   1.868728e-08   27870280
  5.213548e-01   9.438220e-05   5.888416e-04   1.853341e-08   28088090
  5.233952e-01   9.400942e-05   5.892064e-04   1.839423e-08   28326262
  5.254363e-01   9.366108e-05   5.891855e-04   1.826803e-08   28546906
  5.274771e-01   9.324122e-05   5.890514e-04   1.813825e-08   28762552
  5.295175e-01   9.282155e-05   5.889643e-04   1.800411e-08   28979734
  5.315579e-01   9.239114e-05   5.891116e-04   1.785072e-08   29211106
  5.335984e-01   9.200471e-05   5.890058e-04   1.771782e-08   29431738
  5.356386e-01   9.163475e-05   5.888449e-04   1.759306e-08   29648776
  5.376788e-01   9.123552e-05   5.891295e-04   1.746402e-08   29888654
  5.397198e-01   9.078776e-05   5.892792e-04   1.731923e-08   30123490
  5.417605e-01   9.038516e-05   5.889187e-04   1.719394e-08   30334570
  5.438008e-01   9.000253e-05   5.889866e-04   1.706533e-08   30566524
  5.458411e-01   8.957406e-05   5.890413e-04   1.693192e-08   30798370
  5.478823e-01   8.913422e-05   5.894562e-04   1.679582e-08   31052026
  5.499229e-01   8.875049e-05   5.886551e-04   1.668239e-08   31241782
  5.519630e-01   8.831277e-05   5.891853e-04   1.653715e-08   31502128
  5.540036e-01   8.791215e-05   5.889524e-04   1.642268e-08   31721474
  5.560439e-01   8.747276e-05   5.890206e-04   1.629011e-08   31960210
  5.580845e-01   8.702905e-05   5.890910e-04   1.616431e-08   32200582
  5.601251e-01   8.665123e-05   5.889897e-04   1.605275e-08   32429512
  5.621660e-01   8.626123e-05   5.893423e-04   1.591850e-08   32685226
  5.642068e-01   8.582648e-05   5.889439e-04   1.580497e-08   32900830
  5.662468e-01   8.542340e-05   5.888631e-04   1.568017e-08   33135682
  5.682871e-01   8.497462e-05   5.890598e-04   1.556442e-08   33385288
  5.703276e-01   8.455495e-05   5.890887e-04   1.542592e-08   33625706
  5.723684e-01   8.415926e-05   5.891781e-04   1.531124e-08   33873550
  5.744087e-01   8.371467e-05   5.887629e-04   1.520329e-08   34091770
  5.764491e-01   8.332235e-05   5.892514e-04   1.509304e-08   34362160
