# power spectrum of pi_k * H (dimensionless)
# redshift z=1.972697
# k              Pk             sigma(k)       sigma(Pk)      count
  1.554082e-03   3.504303e-10   3.849967e-04   3.378559e-11   146
  3.315891e-03   3.659455e-10   5.645617e-04   1.095425e-11   1042
  5.255560e-03   3.232002e-10   5.631710e-04   6.488582e-12   2698
  7.226238e-03   2.844856e-10   5.714963e-04   3.948238e-12   5206
  9.236952e-03   2.518811e-10   5.879031e-04   2.796848e-12   8752
  1.128500e-02   2.249733e-10   5.950186e-04   1.968127e-12   13258
  1.332029e-02   2.016443e-10   5.812860e-04   1.514341e-12   18070
  1.533799e-02   1.783253e-10   5.833601e-04   1.150379e-12   24050
  1.738769e-02   1.567111e-10   5.989399e-04   8.781685e-13   31720
  1.943477e-02   1.390818e-10   5.849109e-04   7.053853e-13   38722
  2.146405e-02   1.217339e-10   5.862639e-04   5.650505e-13   47398
  2.349979e-02   1.076947e-10   5.882944e-04   4.505246e-13   56986
  2.554151e-02   9.548287e-11   5.907046e-04   3.703250e-13   67552
  2.758014e-02   8.545480e-11   5.872674e-04   3.056406e-13   78310
  2.961557e-02   7.462597e-11   5.882808e-04   2.499354e-13   90514
  3.164924e-02   6.684989e-11   5.857631e-04   2.107850e-13   102938
  3.368563e-02   5.869842e-11   5.901325e-04   1.715842e-13   117412
  3.572860e-02   5.313859e-11   5.900212e-04   1.463350e-13   132106
  3.776869e-02   4.760013e-11   5.879385e-04   1.243338e-13   147154
  3.980581e-02   4.261881e-11   5.881164e-04   1.055373e-13   163522
  4.184971e-02   3.866220e-11   5.917380e-04   9.079032e-14   181804
  4.388716e-02   3.514564e-11   5.852792e-04   7.958971e-14   197722
  4.592521e-02   3.216459e-11   5.913571e-04   6.874912e-14   218866
  4.796858e-02   2.991413e-11   5.883333e-04   6.138764e-14   237542
  5.000645e-02   2.756151e-11   5.882751e-04   5.429704e-14   258136
  5.204613e-02   2.565021e-11   5.892119e-04   4.859126e-14   280066
  5.408484e-02   2.386882e-11   5.879532e-04   4.357512e-14   301774
  5.612494e-02   2.241665e-11   5.897386e-04   3.921756e-14   326050
  5.816725e-02   2.116869e-11   5.892357e-04   3.591023e-14   349792
  6.020894e-02   1.996739e-11   5.898220e-04   3.272211e-14   375154
  6.224878e-02   1.881989e-11   5.878390e-04   2.992836e-14   399742
  6.428502e-02   1.787261e-11   5.877282e-04   2.740102e-14   426266
  6.632420e-02   1.683140e-11   5.892967e-04   2.499669e-14   454960
  6.836448e-02   1.591551e-11   5.887382e-04   2.293003e-14   482734
  7.040483e-02   1.504790e-11   5.895060e-04   2.104176e-14   512746
  7.244666e-02   1.419304e-11   5.892082e-04   1.926751e-14   542746
  7.448833e-02   1.326732e-11   5.895081e-04   1.752562e-14   573952
  7.652873e-02   1.247278e-11   5.886192e-04   1.613284e-14   604918
  7.856782e-02   1.174987e-11   5.887181e-04   1.474172e-14   637666
  8.060887e-02   1.097392e-11   5.897344e-04   1.336485e-14   672482
  8.265024e-02   1.031246e-11   5.887854e-04   1.228312e-14   705748
  8.468883e-02   9.620399e-12   5.884884e-04   1.115715e-14   740482
  8.673009e-02   8.978177e-12   5.901845e-04   1.016069e-14   779026
  8.877006e-02   8.378055e-12   5.875992e-04   9.299612e-15   812614
  9.081033e-02   7.848401e-12   5.902277e-04   8.502759e-15   854200
  9.285241e-02   7.356913e-12   5.887737e-04   7.804086e-15   890746
  9.489189e-02   6.904660e-12   5.888028e-04   7.149717e-15   930394
  9.693174e-02   6.499836e-12   5.888121e-04   6.608747e-15   970982
  9.897209e-02   6.121965e-12   5.890745e-04   6.089220e-15   1012600
  1.010137e-01   5.790928e-12   5.897237e-04   5.647511e-15   1055890
  1.030542e-01   5.488923e-12   5.884073e-04   5.264924e-15   1096630
  1.050933e-01   5.210572e-12   5.887890e-04   4.883133e-15   1141378
  1.071337e-01   4.970449e-12   5.890564e-04   4.571232e-15   1186552
  1.091740e-01   4.759094e-12   5.889981e-04   4.295062e-15   1231798
  1.112148e-01   4.559843e-12   5.893633e-04   4.043339e-15   1279234
  1.132559e-01   4.390066e-12   5.890093e-04   3.820607e-15   1325906
  1.152965e-01   4.231540e-12   5.891197e-04   3.614903e-15   1374352
  1.173364e-01   4.078315e-12   5.886007e-04   3.427404e-15   1421950
  1.193758e-01   3.952967e-12   5.890300e-04   3.261077e-15   1472962
  1.214157e-01   3.811869e-12   5.886064e-04   3.093160e-15   1522954
  1.234545e-01   3.678990e-12   5.884752e-04   2.935982e-15   1573804
  1.254965e-01   3.558225e-12   5.906693e-04   2.786174e-15   1632274
  1.275390e-01   3.435057e-12   5.886302e-04   2.651947e-15   1680226
  1.295769e-01   3.308844e-12   5.879889e-04   2.521528e-15   1732682
  1.316167e-01   3.186234e-12   5.894980e-04   2.381224e-15   1792204
  1.336589e-01   3.070515e-12   5.896575e-04   2.258929e-15   1848298
  1.356989e-01   2.947158e-12   5.883050e-04   2.143030e-15   1901050
  1.377383e-01   2.824096e-12   5.890297e-04   2.017552e-15   1961326
  1.397792e-01   2.701517e-12   5.892228e-04   1.905302e-15   2020312
  1.418209e-01   2.589470e-12   5.895741e-04   1.797605e-15   2080930
  1.438627e-01   2.472332e-12   5.893024e-04   1.690767e-15   2140390
  1.459026e-01   2.362292e-12   5.883405e-04   1.598152e-15   2198162
  1.479427e-01   2.253064e-12   5.893956e-04   1.498669e-15   2263864
  1.499842e-01   2.152425e-12   5.893769e-04   1.412396e-15   2326426
  1.520249e-01   2.054465e-12   5.889045e-04   1.330648e-15   2388550
  1.540650e-01   1.959022e-12   5.888570e-04   1.250895e-15   2453098
  1.561047e-01   1.874035e-12   5.886971e-04   1.182328e-15   2517592
  1.581449e-01   1.797463e-12   5.892905e-04   1.121184e-15   2586070
  1.601854e-01   1.720967e-12   5.889181e-04   1.057941e-15   2651842
  1.622257e-01   1.651613e-12   5.889579e-04   1.000257e-15   2720330
  1.642669e-01   1.589010e-12   5.894439e-04   9.531263e-16   2791156
  1.663078e-01   1.531870e-12   5.889934e-04   9.075690e-16   2858554
  1.683481e-01   1.478747e-12   5.890635e-04   8.647396e-16   2929594
  1.703877e-01   1.430255e-12   5.885431e-04   8.264126e-16   2998762
  1.724278e-01   1.384829e-12   5.891948e-04   7.911781e-16   3074188
  1.744675e-01   1.346021e-12   5.885376e-04   7.595325e-16   3143482
  1.765088e-01   1.305913e-12   5.900653e-04   7.275164e-16   3226186
  1.785498e-01   1.269924e-12   5.882615e-04   7.022155e-16   3291158
  1.805901e-01   1.235637e-12   5.897179e-04   6.732677e-16   3375112
  1.826317e-01   1.203889e-12   5.890290e-04   6.492907e-16   3447658
  1.846719e-01   1.171250e-12   5.889171e-04   6.249681e-16   3524626
  1.867120e-01   1.139741e-12   5.888543e-04   6.019414e-16   3602998
  1.887512e-01   1.109471e-12   5.883706e-04   5.793992e-16   3678592
  1.907908e-01   1.078932e-12   5.892546e-04   5.565628e-16   3764122
  1.928324e-01   1.047960e-12   5.894579e-04   5.353966e-16   3846598
  1.948727e-01   1.018724e-12   5.885077e-04   5.147617e-16   3922250
  1.969136e-01   9.873729e-13   5.896943e-04   4.940020e-16   4013032
  1.989552e-01   9.571198e-13   5.889700e-04   4.736171e-16   4091182
  2.009950e-01   9.270038e-13   5.887664e-04   4.548221e-16   4174282
  2.030353e-01   8.967258e-13   5.891040e-04   4.353509e-16   4261978
  2.050762e-01   8.663568e-13   5.892160e-04   4.161054e-16   4348624
  2.071163e-01   8.379235e-13   5.886637e-04   3.989141e-16   4431430
  2.091564e-01   8.083739e-13   5.892138e-04   3.811649e-16   4523290
  2.111972e-01   7.814697e-13   5.891043e-04   3.648101e-16   4611386
  2.132376e-01   7.552115e-13   5.888473e-04   3.492646e-16   4698814
  2.152782e-01   7.294018e-13   5.893426e-04   3.338167e-16   4792984
  2.173194e-01   7.047385e-13   5.892017e-04   3.195444e-16   4883194
  2.193596e-01   6.799627e-13   5.887755e-04   3.058486e-16   4971694
  2.214001e-01   6.579476e-13   5.893212e-04   2.930395e-16   5069434
  2.234405e-01   6.375344e-13   5.886957e-04   2.816091e-16   5157736
  2.254804e-01   6.175373e-13   5.891220e-04   2.705889e-16   5256202
  2.275212e-01   5.985520e-13   5.891252e-04   2.595403e-16   5351990
  2.295614e-01   5.808477e-13   5.887454e-04   2.495902e-16   5444914
  2.316024e-01   5.646613e-13   5.895775e-04   2.402499e-16   5550088
  2.336441e-01   5.492633e-13   5.892314e-04   2.318414e-16   5644774
  2.356844e-01   5.344728e-13   5.887291e-04   2.237026e-16   5739034
  2.377243e-01   5.207297e-13   5.889493e-04   2.162827e-16   5841154
  2.397648e-01   5.073145e-13   5.891188e-04   2.085643e-16   5943448
  2.418057e-01   4.951369e-13   5.891894e-04   2.021512e-16   6045670
  2.438457e-01   4.833743e-13   5.886738e-04   1.956999e-16   6142586
  2.458857e-01   4.712665e-13   5.890965e-04   1.890801e-16   6250738
  2.479269e-01   4.604876e-13   5.893339e-04   1.834420e-16   6357172
  2.499678e-01   4.492876e-13   5.890271e-04   1.773787e-16   6458506
  2.520084e-01   4.387849e-13   5.891472e-04   1.719418e-16   6566290
  2.540484e-01   4.275856e-13   5.886483e-04   1.663302e-16   6667414
  2.560881e-01   4.171892e-13   5.889729e-04   1.608016e-16   6778336
  2.581289e-01   4.074432e-13   5.893065e-04   1.558371e-16   6890218
  2.601690e-01   3.970547e-13   5.886464e-04   1.508420e-16   6992306
  2.622097e-01   3.868399e-13   5.895050e-04   1.458241e-16   7113454
  2.642508e-01   3.767947e-13   5.888931e-04   1.410005e-16   7216216
  2.662907e-01   3.668215e-13   5.889220e-04   1.360391e-16   7328218
  2.683311e-01   3.568261e-13   5.891504e-04   1.315073e-16   7444414
  2.703714e-01   3.472174e-13   5.887477e-04   1.270309e-16   7553290
  2.724122e-01   3.376179e-13   5.894442e-04   1.224252e-16   7676368
  2.744529e-01   3.287003e-13   5.888427e-04   1.186073e-16   7783150
  2.764932e-01   3.195080e-13   5.891771e-04   1.142519e-16   7904570
  2.785337e-01   3.105314e-13   5.888377e-04   1.104130e-16   8017570
  2.805747e-01   3.021391e-13   5.894749e-04   1.065431e-16   8143840
  2.826158e-01   2.941001e-13   5.889589e-04   1.029896e-16   8255134
  2.846555e-01   2.859318e-13   5.886996e-04   9.949108e-17   8371450
  2.866957e-01   2.784458e-13   5.891278e-04   9.617112e-17   8498578
  2.887371e-01   2.711764e-13   5.893995e-04   9.296761e-17   8623180
  2.907783e-01   2.641547e-13   5.891794e-04   8.996279e-17   8742034
  2.928185e-01   2.573618e-13   5.887409e-04   8.710965e-17   8859194
  2.948582e-01   2.510913e-13   5.888043e-04   8.441364e-17   8984386
  2.968984e-01   2.450044e-13   5.889953e-04   8.177071e-17   9111652
  2.989394e-01   2.391165e-13   5.894313e-04   7.922943e-17   9243322
  3.009801e-01   2.333991e-13   5.888434e-04   7.696820e-17   9361378
  3.030204e-01   2.281150e-13   5.890316e-04   7.472438e-17   9491998
  3.050606e-01   2.229044e-13   5.889315e-04   7.249166e-17   9618016
  3.071010e-01   2.178477e-13   5.891205e-04   7.039803e-17   9750178
  3.091413e-01   2.127347e-13   5.888404e-04   6.825950e-17   9875558
  3.111820e-01   2.083573e-13   5.893640e-04   6.646115e-17   10015834
  3.132223e-01   2.033838e-13   5.885801e-04   6.450369e-17   10133344
  3.152627e-01   1.989911e-13   5.895529e-04   6.266903e-17   10282522
  3.173040e-01   1.945731e-13   5.889812e-04   6.093192e-17   10406974
  3.193437e-01   1.900315e-13   5.886096e-04   5.914986e-17   10534378
  3.213841e-01   1.859330e-13   5.894405e-04   5.743858e-17   10684456
  3.234254e-01   1.818621e-13   5.890917e-04   5.586314e-17   10813894
  3.254654e-01   1.776473e-13   5.887488e-04   5.426878e-17   10944626
  3.275058e-01   1.735908e-13   5.892300e-04   5.272706e-17   11091802
  3.295466e-01   1.696239e-13   5.889694e-04   5.121323e-17   11224756
  3.315871e-01   1.655725e-13   5.891399e-04   4.966697e-17   11367730
  3.336279e-01   1.617666e-13   5.891097e-04   4.823721e-17   11507890
  3.356680e-01   1.580430e-13   5.886912e-04   4.688383e-17   11640658
  3.377084e-01   1.543225e-13   5.893412e-04   4.552063e-17   11795380
  3.397495e-01   1.506601e-13   5.891216e-04   4.416010e-17   11933434
  3.417900e-01   1.471078e-13   5.889963e-04   4.289602e-17   12074954
  3.438308e-01   1.437993e-13   5.892532e-04   4.169679e-17   12225142
  3.458709e-01   1.403726e-13   5.885745e-04   4.049852e-17   12356104
  3.479106e-01   1.370836e-13   5.891058e-04   3.929367e-17   12513442
  3.499516e-01   1.339904e-13   5.892873e-04   3.819235e-17   12664810
  3.519928e-01   1.308045e-13   5.891937e-04   3.710117e-17   12811246
  3.540334e-01   1.278322e-13   5.889181e-04   3.603257e-17   12953536
  3.560735e-01   1.250427e-13   5.890044e-04   3.509361e-17   13105042
  3.581140e-01   1.221294e-13   5.891192e-04   3.405375e-17   13258670
  3.601546e-01   1.195283e-13   5.890325e-04   3.318454e-17   13408738
  3.621953e-01   1.169131e-13   5.890899e-04   3.228148e-17   13562320
  3.642355e-01   1.144036e-13   5.888450e-04   3.143993e-17   13709062
  3.662757e-01   1.118704e-13   5.891202e-04   3.055628e-17   13870258
  3.683171e-01   1.094855e-13   5.894186e-04   2.975127e-17   14032714
  3.703575e-01   1.071755e-13   5.886241e-04   2.899850e-17   14169232
  3.723976e-01   1.049191e-13   5.891956e-04   2.822041e-17   14339422
  3.744381e-01   1.027389e-13   5.888919e-04   2.750892e-17   14489330
  3.764785e-01   1.005003e-13   5.891282e-04   2.675554e-17   14654458
  3.785190e-01   9.841201e-14   5.889293e-04   2.608975e-17   14808292
  3.805593e-01   9.640752e-14   5.890179e-04   2.541125e-17   14970130
  3.825997e-01   9.445977e-14   5.890254e-04   2.479028e-17   15131626
  3.846399e-01   9.243226e-14   5.888648e-04   2.413591e-17   15289198
  3.866807e-01   9.052296e-14   5.894136e-04   2.350611e-17   15466552
  3.887217e-01   8.862257e-14   5.889267e-04   2.292057e-17   15616714
  3.907617e-01   8.681303e-14   5.889009e-04   2.234398e-17   15780506
  3.928022e-01   8.495618e-14   5.891699e-04   2.176201e-17   15953542
  3.948433e-01   8.323534e-14   5.892495e-04   2.120798e-17   16121296
  3.968834e-01   8.147768e-14   5.886227e-04   2.068740e-17   16270762
  3.989235e-01   7.968226e-14   5.892919e-04   2.010934e-17   16457182
  4.009646e-01   7.810016e-14   5.891739e-04   1.961049e-17   16623562
  4.030052e-01   7.639857e-14   5.889160e-04   1.910963e-17   16785784
  4.050455e-01   7.483113e-14   5.890644e-04   1.863245e-17   16959370
  4.070861e-01   7.325950e-14   5.891235e-04   1.815853e-17   17132774
  4.091266e-01   7.170447e-14   5.889569e-04   1.769890e-17   17300602
  4.111672e-01   7.014672e-14   5.891834e-04   1.723541e-17   17480656
  4.132078e-01   6.873321e-14   5.889644e-04   1.681032e-17   17647558
  4.152481e-01   6.730907e-14   5.890172e-04   1.639996e-17   17823778
  4.172887e-01   6.596614e-14   5.890581e-04   1.598392e-17   18001594
  4.193290e-01   6.462591e-14   5.888841e-04   1.560449e-17   18172300
  4.213694e-01   6.323605e-14   5.891306e-04   1.520812e-17   18356770
  4.234105e-01   6.195997e-14   5.893313e-04   1.483518e-17   18541082
  4.254516e-01   6.070124e-14   5.891095e-04   1.446488e-17   18713914
  4.274917e-01   5.947861e-14   5.886533e-04   1.412165e-17   18879742
  4.295318e-01   5.828078e-14   5.892187e-04   1.377228e-17   19077592
  4.315727e-01   5.710402e-14   5.891074e-04   1.343063e-17   19255474
  4.336133e-01   5.596099e-14   5.890497e-04   1.310589e-17   19436278
  4.356531e-01   5.485684e-14   5.886327e-04   1.281373e-17   19605994
  4.376936e-01   5.379912e-14   5.894559e-04   1.250440e-17   19817344
  4.397347e-01   5.276485e-14   5.889775e-04   1.221248e-17   19985702
  4.417750e-01   5.167879e-14   5.890630e-04   1.192447e-17   20175730
  4.438152e-01   5.065946e-14   5.887860e-04   1.164025e-17   20352682
  4.458557e-01   4.968325e-14   5.893597e-04   1.137016e-17   20559616
  4.478969e-01   4.870120e-14   5.891648e-04   1.109974e-17   20741518
  4.499369e-01   4.777919e-14   5.886230e-04   1.085096e-17   20912026
  4.519768e-01   4.683643e-14   5.891225e-04   1.059318e-17   21121018
  4.540176e-01   4.594528e-14   5.890883e-04   1.035162e-17   21310012
  4.560579e-01   4.503483e-14   5.889301e-04   1.011349e-17   21496154
  4.580989e-01   4.415993e-14   5.893557e-04   9.874770e-18   21705946
  4.601398e-01   4.329426e-14   5.889070e-04   9.643169e-18   21882562
  4.621802e-01   4.246713e-14   5.891458e-04   9.422835e-18   22085428
  4.642214e-01   4.165438e-14   5.893143e-04   9.212919e-18   22287106
  4.662615e-01   4.082133e-14   5.885500e-04   8.993257e-18   22455010
  4.683013e-01   4.006352e-14   5.890571e-04   8.801332e-18   22671694
  4.703421e-01   3.925733e-14   5.892012e-04   8.587982e-18   22874368
  4.723830e-01   3.853309e-14   5.891203e-04   8.401457e-18   23070146
  4.744235e-01   3.777232e-14   5.889653e-04   8.209452e-18   23264038
  4.764637e-01   3.703023e-14   5.889570e-04   8.019504e-18   23464210
  4.785045e-01   3.633525e-14   5.893101e-04   7.835962e-18   23679208
  4.805453e-01   3.563827e-14   5.889894e-04   7.660156e-18   23868658
  4.825856e-01   3.494801e-14   5.889440e-04   7.485838e-18   24070582
  4.846259e-01   3.428914e-14   5.890549e-04   7.316503e-18   24278842
  4.866664e-01   3.364338e-14   5.890268e-04   7.160538e-18   24482272
  4.887069e-01   3.300858e-14   5.890750e-04   7.002529e-18   24689510
  4.907474e-01   3.238157e-14   5.890195e-04   6.844641e-18   24894634
  4.927881e-01   3.178616e-14   5.891565e-04   6.693561e-18   25108474
  4.948289e-01   3.117628e-14   5.890919e-04   6.547825e-18   25313116
  4.968692e-01   3.059922e-14   5.889389e-04   6.405494e-18   25515970
  4.989095e-01   3.001898e-14   5.889848e-04   6.263205e-18   25727962
  5.009501e-01   2.946709e-14   5.892016e-04   6.125337e-18   25948954
  5.029911e-01   2.891652e-14   5.891242e-04   5.994040e-18   26157220
  5.050312e-01   2.838245e-14   5.887329e-04   5.865650e-18   26351546
  5.070713e-01   2.785824e-14   5.891599e-04   5.739599e-18   26585314
  5.091124e-01   2.734723e-14   5.891783e-04   5.614158e-18   26800630
  5.111529e-01   2.684124e-14   5.889142e-04   5.497913e-18   27003376
  5.131928e-01   2.635745e-14   5.887939e-04   5.381168e-18   27213202
  5.152333e-01   2.586449e-14   5.893371e-04   5.262107e-18   27455194
  5.172745e-01   2.538760e-14   5.891605e-04   5.151547e-18   27666070
  5.193150e-01   2.494153e-14   5.888642e-04   5.046987e-18   27870280
  5.213548e-01   2.448119e-14   5.888416e-04   4.939051e-18   28088090
  5.233952e-01   2.404015e-14   5.892064e-04   4.833994e-18   28326262
  5.254363e-01   2.360834e-14   5.891855e-04   4.734488e-18   28546906
  5.274771e-01   2.318076e-14   5.890514e-04   4.638284e-18   28762552
  5.295175e-01   2.275426e-14   5.889643e-04   4.540704e-18   28979734
  5.315579e-01   2.233817e-14   5.891116e-04   4.441738e-18   29211106
  5.335984e-01   2.193664e-14   5.890058e-04   4.349026e-18   29431738
  5.356386e-01   2.154830e-14   5.888449e-04   4.262366e-18   29648776
  5.376788e-01   2.116694e-14   5.891295e-04   4.175602e-18   29888654
  5.397198e-01   2.077835e-14   5.892792e-04   4.085605e-18   30123490
  5.417605e-01   2.040945e-14   5.889187e-04   4.003659e-18   30334570
  5.438008e-01   2.004865e-14   5.889866e-04   3.921263e-18   30566524
  5.458411e-01   1.968755e-14   5.890413e-04   3.841315e-18   30798370
  5.478823e-01   1.933381e-14   5.894562e-04   3.760817e-18   31052026
  5.499229e-01   1.899287e-14   5.886551e-04   3.687421e-18   31241782
  5.519630e-01   1.865258e-14   5.891853e-04   3.609595e-18   31502128
  5.540036e-01   1.832865e-14   5.889524e-04   3.539975e-18   31721474
  5.560439e-01   1.799921e-14   5.890206e-04   3.466903e-18   31960210
  5.580845e-01   1.767828e-14   5.890910e-04   3.396431e-18   32200582
  5.601251e-01   1.737729e-14   5.889897e-04   3.331620e-18   32429512
  5.621660e-01   1.707709e-14   5.893423e-04   3.263531e-18   32685226
  5.642068e-01   1.677368e-14   5.889439e-04   3.199252e-18   32900830
  5.662468e-01   1.648275e-14   5.888631e-04   3.134977e-18   33135682
  5.682871e-01   1.619343e-14   5.890598e-04   3.075395e-18   33385288
  5.703276e-01   1.590990e-14   5.890887e-04   3.011092e-18   33625706
  5.723684e-01   1.563796e-14   5.891781e-04   2.952544e-18   33873550
  5.744087e-01   1.536428e-14   5.887629e-04   2.897428e-18   34091770
