# power spectrum of pi_k * H (dimensionless)
# redshift z=96.079122
# k              Pk             sigma(k)       sigma(Pk)      count
  1.554082e-03   3.245291e-10   3.849967e-04   3.132431e-11   146
  3.315891e-03   3.534356e-10   5.645617e-04   1.057080e-11   1042
  5.255560e-03   3.215029e-10   5.631710e-04   6.445856e-12   2698
  7.226238e-03   2.864724e-10   5.714963e-04   3.976131e-12   5206
  9.236952e-03   2.543492e-10   5.879031e-04   2.824797e-12   8752
  1.128500e-02   2.272247e-10   5.950186e-04   1.987538e-12   13258
  1.332029e-02   2.037307e-10   5.812860e-04   1.529809e-12   18070
  1.533799e-02   1.803268e-10   5.833601e-04   1.163119e-12   24050
  1.738769e-02   1.586573e-10   5.989399e-04   8.888488e-13   31720
  1.943477e-02   1.410367e-10   5.849109e-04   7.153013e-13   38722
  2.146405e-02   1.236285e-10   5.862639e-04   5.738904e-13   47398
  2.349979e-02   1.095610e-10   5.882944e-04   4.583482e-13   56986
  2.554151e-02   9.729082e-11   5.907046e-04   3.772934e-13   67552
  2.758014e-02   8.724826e-11   5.872674e-04   3.121047e-13   78310
  2.961557e-02   7.632229e-11   5.882808e-04   2.555780e-13   90514
  3.164924e-02   6.848709e-11   5.857631e-04   2.159334e-13   102938
  3.368563e-02   6.023040e-11   5.901325e-04   1.760239e-13   117412
  3.572860e-02   5.460192e-11   5.900212e-04   1.503711e-13   132106
  3.776869e-02   4.896300e-11   5.879385e-04   1.279258e-13   147154
  3.980581e-02   4.387931e-11   5.881164e-04   1.086456e-13   163522
  4.184971e-02   3.981170e-11   5.917380e-04   9.345019e-14   181804
  4.388716e-02   3.621612e-11   5.852792e-04   8.200812e-14   197722
  4.592521e-02   3.314801e-11   5.913571e-04   7.081946e-14   218866
  4.796858e-02   3.083534e-11   5.883333e-04   6.326883e-14   237542
  5.000645e-02   2.840268e-11   5.882751e-04   5.594433e-14   258136
  5.204613e-02   2.641986e-11   5.892119e-04   5.005718e-14   280066
  5.408484e-02   2.458366e-11   5.879532e-04   4.488136e-14   301774
  5.612494e-02   2.307631e-11   5.897386e-04   4.038010e-14   326050
  5.816725e-02   2.177187e-11   5.892357e-04   3.692766e-14   349792
  6.020894e-02   2.054471e-11   5.898220e-04   3.368942e-14   375154
  6.224878e-02   1.936028e-11   5.878390e-04   3.078986e-14   399742
  6.428502e-02   1.839622e-11   5.877282e-04   2.819254e-14   426266
  6.632420e-02   1.734163e-11   5.892967e-04   2.575213e-14   454960
  6.836448e-02   1.640696e-11   5.887382e-04   2.363925e-14   482734
  7.040483e-02   1.552489e-11   5.895060e-04   2.169799e-14   512746
  7.244666e-02   1.466783e-11   5.892082e-04   1.991293e-14   542746
  7.448833e-02   1.373327e-11   5.895081e-04   1.813757e-14   573952
  7.652873e-02   1.293461e-11   5.886192e-04   1.673138e-14   604918
  7.856782e-02   1.221030e-11   5.887181e-04   1.531400e-14   637666
  8.060887e-02   1.142916e-11   5.897344e-04   1.391653e-14   672482
  8.265024e-02   1.076366e-11   5.887854e-04   1.281683e-14   705748
  8.468883e-02   1.006488e-11   5.884884e-04   1.167209e-14   740482
  8.673009e-02   9.421748e-12   5.901845e-04   1.066343e-14   779026
  8.877006e-02   8.813772e-12   5.875992e-04   9.779474e-15   812614
  9.081033e-02   8.274540e-12   5.902277e-04   8.964165e-15   854200
  9.285241e-02   7.780127e-12   5.887737e-04   8.249838e-15   890746
  9.489189e-02   7.315920e-12   5.888028e-04   7.574461e-15   930394
  9.693174e-02   6.900248e-12   5.888121e-04   7.019032e-15   970982
  9.897209e-02   6.515571e-12   5.890745e-04   6.480767e-15   1012600
  1.010137e-01   6.165803e-12   5.897237e-04   6.011793e-15   1055890
  1.030542e-01   5.856287e-12   5.884073e-04   5.620103e-15   1096630
  1.050933e-01   5.568334e-12   5.887890e-04   5.218867e-15   1141378
  1.071337e-01   5.318640e-12   5.890564e-04   4.890587e-15   1186552
  1.091740e-01   5.095011e-12   5.889981e-04   4.596767e-15   1231798
  1.112148e-01   4.889696e-12   5.893633e-04   4.335094e-15   1279234
  1.132559e-01   4.711632e-12   5.890093e-04   4.099874e-15   1325906
  1.152965e-01   4.546576e-12   5.891197e-04   3.884673e-15   1374352
  1.173364e-01   4.385539e-12   5.886007e-04   3.686102e-15   1421950
  1.193758e-01   4.253629e-12   5.890300e-04   3.509499e-15   1472962
  1.214157e-01   4.109484e-12   5.886064e-04   3.332834e-15   1522954
  1.234545e-01   3.972748e-12   5.884752e-04   3.172457e-15   1573804
  1.254965e-01   3.848628e-12   5.906693e-04   3.013420e-15   1632274
  1.275390e-01   3.720745e-12   5.886302e-04   2.871201e-15   1680226
  1.295769e-01   3.591850e-12   5.879889e-04   2.735425e-15   1732682
  1.316167e-01   3.469223e-12   5.894980e-04   2.592135e-15   1792204
  1.336589e-01   3.347717e-12   5.896575e-04   2.462529e-15   1848298
  1.356989e-01   3.220671e-12   5.883050e-04   2.342728e-15   1901050
  1.377383e-01   3.093220e-12   5.890297e-04   2.207705e-15   1961326
  1.397792e-01   2.967655e-12   5.892228e-04   2.093152e-15   2020312
  1.418209e-01   2.852649e-12   5.895741e-04   1.979195e-15   2080930
  1.438627e-01   2.731109e-12   5.893024e-04   1.868499e-15   2140390
  1.459026e-01   2.617307e-12   5.883405e-04   1.768897e-15   2198162
  1.479427e-01   2.503015e-12   5.893956e-04   1.664273e-15   2263864
  1.499842e-01   2.397264e-12   5.893769e-04   1.571655e-15   2326426
  1.520249e-01   2.294282e-12   5.889045e-04   1.483944e-15   2388550
  1.540650e-01   2.194713e-12   5.888570e-04   1.399953e-15   2453098
  1.561047e-01   2.105030e-12   5.886971e-04   1.326847e-15   2517592
  1.581449e-01   2.024027e-12   5.892905e-04   1.261901e-15   2586070
  1.601854e-01   1.942454e-12   5.889181e-04   1.193330e-15   2651842
  1.622257e-01   1.869018e-12   5.889579e-04   1.130231e-15   2720330
  1.642669e-01   1.802531e-12   5.894439e-04   1.080430e-15   2791156
  1.663078e-01   1.741818e-12   5.889934e-04   1.031226e-15   2858554
  1.683481e-01   1.685122e-12   5.890635e-04   9.848016e-16   2929594
  1.703877e-01   1.633921e-12   5.885431e-04   9.433843e-16   2998762
  1.724278e-01   1.585636e-12   5.891948e-04   9.051389e-16   3074188
  1.744675e-01   1.544788e-12   5.885376e-04   8.706955e-16   3143482
  1.765088e-01   1.503481e-12   5.900653e-04   8.366965e-16   3226186
  1.785498e-01   1.464554e-12   5.882615e-04   8.093538e-16   3291158
  1.805901e-01   1.429553e-12   5.897179e-04   7.784984e-16   3375112
  1.826317e-01   1.396847e-12   5.890290e-04   7.528203e-16   3447658
  1.846719e-01   1.362436e-12   5.889171e-04   7.262017e-16   3524626
  1.867120e-01   1.329953e-12   5.888543e-04   7.017350e-16   3602998
  1.887512e-01   1.298239e-12   5.883706e-04   6.769665e-16   3678592
  1.907908e-01   1.265537e-12   5.892546e-04   6.521854e-16   3764122
  1.928324e-01   1.234056e-12   5.894579e-04   6.295922e-16   3846598
  1.948727e-01   1.203453e-12   5.885077e-04   6.074060e-16   3922250
  1.969136e-01   1.170522e-12   5.896943e-04   5.851757e-16   4013032
  1.989552e-01   1.137701e-12   5.889700e-04   5.620730e-16   4091182
  2.009950e-01   1.105303e-12   5.887664e-04   5.415041e-16   4174282
  2.030353e-01   1.073261e-12   5.891040e-04   5.200282e-16   4261978
  2.050762e-01   1.040197e-12   5.892160e-04   4.986534e-16   4348624
  2.071163e-01   1.008928e-12   5.886637e-04   4.792557e-16   4431430
  2.091564e-01   9.769814e-13   5.892138e-04   4.596877e-16   4523290
  2.111972e-01   9.471952e-13   5.891043e-04   4.415157e-16   4611386
  2.132376e-01   9.179302e-13   5.888473e-04   4.239779e-16   4698814
  2.152782e-01   8.894959e-13   5.893426e-04   4.062007e-16   4792984
  2.173194e-01   8.625704e-13   5.892017e-04   3.901942e-16   4883194
  2.193596e-01   8.349452e-13   5.887755e-04   3.747011e-16   4971694
  2.214001e-01   8.099891e-13   5.893212e-04   3.599245e-16   5069434
  2.234405e-01   7.878958e-13   5.886957e-04   3.470420e-16   5157736
  2.254804e-01   7.656089e-13   5.891220e-04   3.345814e-16   5256202
  2.275212e-01   7.444631e-13   5.891252e-04   3.221182e-16   5351990
  2.295614e-01   7.251528e-13   5.887454e-04   3.108358e-16   5444914
  2.316024e-01   7.069752e-13   5.895775e-04   2.999765e-16   5550088
  2.336441e-01   6.901747e-13   5.892314e-04   2.902945e-16   5644774
  2.356844e-01   6.736778e-13   5.887291e-04   2.813329e-16   5739034
  2.377243e-01   6.592104e-13   5.889493e-04   2.729082e-16   5841154
  2.397648e-01   6.445989e-13   5.891188e-04   2.643730e-16   5943448
  2.418057e-01   6.311475e-13   5.891894e-04   2.566634e-16   6045670
  2.438457e-01   6.188425e-13   5.886738e-04   2.496725e-16   6142586
  2.458857e-01   6.060305e-13   5.890965e-04   2.422790e-16   6250738
  2.479269e-01   5.938824e-13   5.893339e-04   2.356227e-16   6357172
  2.499678e-01   5.818405e-13   5.890271e-04   2.289429e-16   6458506
  2.520084e-01   5.704794e-13   5.891472e-04   2.225669e-16   6566290
  2.540484e-01   5.583867e-13   5.886483e-04   2.163944e-16   6667414
  2.560881e-01   5.470419e-13   5.889729e-04   2.099767e-16   6778336
  2.581289e-01   5.361797e-13   5.893065e-04   2.042024e-16   6890218
  2.601690e-01   5.248382e-13   5.886464e-04   1.984934e-16   6992306
  2.622097e-01   5.133389e-13   5.895050e-04   1.926477e-16   7113454
  2.642508e-01   5.023777e-13   5.888931e-04   1.871393e-16   7216216
  2.662907e-01   4.907732e-13   5.889220e-04   1.811688e-16   7328218
  2.683311e-01   4.795193e-13   5.891504e-04   1.758149e-16   7444414
  2.703714e-01   4.681323e-13   5.887477e-04   1.704286e-16   7553290
  2.724122e-01   4.572985e-13   5.894442e-04   1.650856e-16   7676368
  2.744529e-01   4.468430e-13   5.888427e-04   1.602753e-16   7783150
  2.764932e-01   4.359615e-13   5.891771e-04   1.550951e-16   7904570
  2.785337e-01   4.253934e-13   5.888377e-04   1.503421e-16   8017570
  2.805747e-01   4.155019e-13   5.894749e-04   1.456278e-16   8143840
  2.826158e-01   4.059963e-13   5.889589e-04   1.413840e-16   8255134
  2.846555e-01   3.963075e-13   5.886996e-04   1.369851e-16   8371450
  2.866957e-01   3.873623e-13   5.891278e-04   1.329826e-16   8498578
  2.887371e-01   3.788504e-13   5.893995e-04   1.290205e-16   8623180
  2.907783e-01   3.706333e-13   5.891794e-04   1.254293e-16   8742034
  2.928185e-01   3.627430e-13   5.887409e-04   1.219370e-16   8859194
  2.948582e-01   3.549951e-13   5.888043e-04   1.184814e-16   8984386
  2.968984e-01   3.480571e-13   5.889953e-04   1.153401e-16   9111652
  2.989394e-01   3.411727e-13   5.894313e-04   1.122127e-16   9243322
  3.009801e-01   3.345080e-13   5.888434e-04   1.094008e-16   9361378
  3.030204e-01   3.282626e-13   5.890316e-04   1.066442e-16   9491998
  3.050606e-01   3.224016e-13   5.889315e-04   1.039667e-16   9618016
  3.071010e-01   3.166362e-13   5.891205e-04   1.014847e-16   9750178
  3.091413e-01   3.105286e-13   5.888404e-04   9.882534e-17   9875558
  3.111820e-01   3.056913e-13   5.893640e-04   9.661168e-17   10015834
  3.132223e-01   2.998546e-13   5.885801e-04   9.425189e-17   10133344
  3.152627e-01   2.947426e-13   5.895529e-04   9.198658e-17   10282522
  3.173040e-01   2.896916e-13   5.889812e-04   8.985216e-17   10406974
  3.193437e-01   2.843088e-13   5.886096e-04   8.766701e-17   10534378
  3.213841e-01   2.794191e-13   5.894405e-04   8.545100e-17   10684456
  3.234254e-01   2.746337e-13   5.890917e-04   8.348519e-17   10813894
  3.254654e-01   2.695995e-13   5.887488e-04   8.154404e-17   10944626
  3.275058e-01   2.647123e-13   5.892300e-04   7.952644e-17   11091802
  3.295466e-01   2.598332e-13   5.889694e-04   7.758461e-17   11224756
  3.315871e-01   2.548961e-13   5.891399e-04   7.557510e-17   11367730
  3.336279e-01   2.503460e-13   5.891097e-04   7.380035e-17   11507890
  3.356680e-01   2.456816e-13   5.886912e-04   7.201445e-17   11640658
  3.377084e-01   2.410096e-13   5.893412e-04   7.026110e-17   11795380
  3.397495e-01   2.363480e-13   5.891216e-04   6.842224e-17   11933434
  3.417900e-01   2.318671e-13   5.889963e-04   6.676113e-17   12074954
  3.438308e-01   2.276243e-13   5.892532e-04   6.511277e-17   12225142
  3.458709e-01   2.233442e-13   5.885745e-04   6.356881e-17   12356104
  3.479106e-01   2.191232e-13   5.891058e-04   6.195613e-17   12513442
  3.499516e-01   2.152181e-13   5.892873e-04   6.047871e-17   12664810
  3.519928e-01   2.110883e-13   5.891937e-04   5.898212e-17   12811246
  3.540334e-01   2.073474e-13   5.889181e-04   5.758738e-17   12953536
  3.560735e-01   2.037305e-13   5.890044e-04   5.632740e-17   13105042
  3.581140e-01   2.000358e-13   5.891192e-04   5.492679e-17   13258670
  3.601546e-01   1.966690e-13   5.890325e-04   5.375175e-17   13408738
  3.621953e-01   1.932927e-13   5.890899e-04   5.249025e-17   13562320
  3.642355e-01   1.901257e-13   5.888450e-04   5.140335e-17   13709062
  3.662757e-01   1.868620e-13   5.891202e-04   5.015073e-17   13870258
  3.683171e-01   1.838207e-13   5.894186e-04   4.907829e-17   14032714
  3.703575e-01   1.809375e-13   5.886241e-04   4.809898e-17   14169232
  3.723976e-01   1.781054e-13   5.891956e-04   4.706589e-17   14339422
  3.744381e-01   1.752188e-13   5.888919e-04   4.603544e-17   14489330
  3.764785e-01   1.724776e-13   5.891282e-04   4.504827e-17   14654458
  3.785190e-01   1.698148e-13   5.889293e-04   4.417646e-17   14808292
  3.805593e-01   1.671903e-13   5.890179e-04   4.321223e-17   14970130
  3.825997e-01   1.646826e-13   5.890254e-04   4.235364e-17   15131626
  3.846399e-01   1.621181e-13   5.888648e-04   4.147527e-17   15289198
  3.866807e-01   1.596814e-13   5.894136e-04   4.061420e-17   15466552
  3.887217e-01   1.571167e-13   5.889267e-04   3.975927e-17   15616714
  3.907617e-01   1.546678e-13   5.889009e-04   3.896428e-17   15780506
  3.928022e-01   1.522555e-13   5.891699e-04   3.813778e-17   15953542
  3.948433e-01   1.499871e-13   5.892495e-04   3.735561e-17   16121296
  3.968834e-01   1.475830e-13   5.886227e-04   3.661680e-17   16270762
  3.989235e-01   1.451642e-13   5.892919e-04   3.579828e-17   16457182
  4.009646e-01   1.429562e-13   5.891739e-04   3.506415e-17   16623562
  4.030052e-01   1.406535e-13   5.889160e-04   3.432265e-17   16785784
  4.050455e-01   1.385485e-13   5.890644e-04   3.364691e-17   16959370
  4.070861e-01   1.363624e-13   5.891235e-04   3.294766e-17   17132774
  4.091266e-01   1.340726e-13   5.889569e-04   3.225397e-17   17300602
  4.111672e-01   1.319683e-13   5.891834e-04   3.156003e-17   17480656
  4.132078e-01   1.299674e-13   5.889644e-04   3.095158e-17   17647558
  4.152481e-01   1.279646e-13   5.890172e-04   3.032198e-17   17823778
  4.172887e-01   1.261205e-13   5.890581e-04   2.971676e-17   18001594
  4.193290e-01   1.241770e-13   5.888841e-04   2.912609e-17   18172300
  4.213694e-01   1.222251e-13   5.891306e-04   2.853962e-17   18356770
  4.234105e-01   1.204143e-13   5.893313e-04   2.798453e-17   18541082
  4.254516e-01   1.186473e-13   5.891095e-04   2.742488e-17   18713914
  4.274917e-01   1.168824e-13   5.886533e-04   2.691508e-17   18879742
  4.295318e-01   1.151401e-13   5.892187e-04   2.636168e-17   19077592
  4.315727e-01   1.135127e-13   5.891074e-04   2.584981e-17   19255474
  4.336133e-01   1.118665e-13   5.890497e-04   2.536691e-17   19436278
  4.356531e-01   1.103075e-13   5.886327e-04   2.491899e-17   19605994
  4.376936e-01   1.087670e-13   5.894559e-04   2.444403e-17   19817344
  4.397347e-01   1.073021e-13   5.889775e-04   2.399378e-17   19985702
  4.417750e-01   1.056614e-13   5.890630e-04   2.352443e-17   20175730
  4.438152e-01   1.042350e-13   5.887860e-04   2.310592e-17   20352682
  4.458557e-01   1.028431e-13   5.893597e-04   2.269010e-17   20559616
  4.478969e-01   1.014005e-13   5.891648e-04   2.226464e-17   20741518
  4.499369e-01   1.000670e-13   5.886230e-04   2.188336e-17   20912026
  4.519768e-01   9.865041e-14   5.891225e-04   2.146301e-17   21121018
  4.540176e-01   9.730109e-14   5.890883e-04   2.108195e-17   21310012
  4.560579e-01   9.597563e-14   5.889301e-04   2.070506e-17   21496154
  4.580989e-01   9.468745e-14   5.893557e-04   2.032332e-17   21705946
  4.601398e-01   9.337778e-14   5.889070e-04   1.994999e-17   21882562
  4.621802e-01   9.211446e-14   5.891458e-04   1.959939e-17   22085428
  4.642214e-01   9.085584e-14   5.893143e-04   1.924729e-17   22287106
  4.662615e-01   8.958398e-14   5.885500e-04   1.891174e-17   22455010
  4.683013e-01   8.844447e-14   5.890571e-04   1.858128e-17   22671694
  4.703421e-01   8.719252e-14   5.892012e-04   1.823314e-17   22874368
  4.723830e-01   8.603526e-14   5.891203e-04   1.791878e-17   23070146
  4.744235e-01   8.488220e-14   5.889653e-04   1.760870e-17   23264038
  4.764637e-01   8.372165e-14   5.889570e-04   1.728393e-17   23464210
  4.785045e-01   8.259009e-14   5.893101e-04   1.697006e-17   23679208
  4.805453e-01   8.150251e-14   5.889894e-04   1.668687e-17   23868658
  4.825856e-01   8.036334e-14   5.889440e-04   1.638739e-17   24070582
  4.846259e-01   7.935315e-14   5.890549e-04   1.610588e-17   24278842
  4.866664e-01   7.825808e-14   5.890268e-04   1.582060e-17   24482272
  4.887069e-01   7.722628e-14   5.890750e-04   1.554818e-17   24689510
  4.907474e-01   7.625796e-14   5.890195e-04   1.528878e-17   24894634
  4.927881e-01   7.528409e-14   5.891565e-04   1.502842e-17   25108474
  4.948289e-01   7.425774e-14   5.890919e-04   1.475872e-17   25313116
  4.968692e-01   7.334538e-14   5.889389e-04   1.452491e-17   25515970
  4.989095e-01   7.241911e-14   5.889848e-04   1.427373e-17   25727962
  5.009501e-01   7.147632e-14   5.892016e-04   1.403204e-17   25948954
  5.029911e-01   7.058313e-14   5.891242e-04   1.380500e-17   26157220
  5.050312e-01   6.971198e-14   5.887329e-04   1.358238e-17   26351546
  5.070713e-01   6.885992e-14   5.891599e-04   1.336131e-17   26585314
  5.091124e-01   6.799884e-14   5.891783e-04   1.313615e-17   26800630
  5.111529e-01   6.714963e-14   5.889142e-04   1.292776e-17   27003376
  5.131928e-01   6.630835e-14   5.887939e-04   1.271888e-17   27213202
  5.152333e-01   6.546475e-14   5.893371e-04   1.249647e-17   27455194
  5.172745e-01   6.468328e-14   5.891605e-04   1.229769e-17   27666070
  5.193150e-01   6.394454e-14   5.888642e-04   1.210992e-17   27870280
  5.213548e-01   6.310302e-14   5.888416e-04   1.190476e-17   28088090
  5.233952e-01   6.234122e-14   5.892064e-04   1.171355e-17   28326262
  5.254363e-01   6.162843e-14   5.891855e-04   1.153307e-17   28546906
  5.274771e-01   6.087493e-14   5.890514e-04   1.135193e-17   28762552
  5.295175e-01   6.013885e-14   5.889643e-04   1.117605e-17   28979734
  5.315579e-01   5.937277e-14   5.891116e-04   1.098715e-17   29211106
  5.335984e-01   5.869623e-14   5.890058e-04   1.082218e-17   29431738
  5.356386e-01   5.800164e-14   5.888449e-04   1.065315e-17   29648776
  5.376788e-01   5.728310e-14   5.891295e-04   1.048104e-17   29888654
  5.397198e-01   5.661003e-14   5.892792e-04   1.031593e-17   30123490
  5.417605e-01   5.591946e-14   5.889187e-04   1.015626e-17   30334570
  5.438008e-01   5.526634e-14   5.889866e-04   1.000049e-17   30566524
  5.458411e-01   5.461927e-14   5.890413e-04   9.840923e-18   30798370
  5.478823e-01   5.396173e-14   5.894562e-04   9.684405e-18   31052026
  5.499229e-01   5.335293e-14   5.886551e-04   9.547893e-18   31241782
  5.519630e-01   5.273275e-14   5.891853e-04   9.394727e-18   31502128
  5.540036e-01   5.211077e-14   5.889524e-04   9.254286e-18   31721474
  5.560439e-01   5.149853e-14   5.890206e-04   9.113332e-18   31960210
  5.580845e-01   5.088859e-14   5.890910e-04   8.970016e-18   32200582
  5.601251e-01   5.030528e-14   5.889897e-04   8.832412e-18   32429512
  5.621660e-01   4.973750e-14   5.893423e-04   8.698815e-18   32685226
  5.642068e-01   4.915984e-14   5.889439e-04   8.573541e-18   32900830
  5.662468e-01   4.862950e-14   5.888631e-04   8.450265e-18   33135682
  5.682871e-01   4.804034e-14   5.890598e-04   8.312438e-18   33385288
  5.703276e-01   4.752332e-14   5.890887e-04   8.196286e-18   33625706
  5.723684e-01   4.698988e-14   5.891781e-04   8.071307e-18   33873550
  5.744087e-01   4.645107e-14   5.887629e-04   7.954316e-18   34091770
