# power spectrum of delta_kessence
# redshift z=9.995116
# k              Pk             sigma(k)       sigma(Pk)      count
  1.554082e-03   8.203958e-11   3.849967e-04   8.464709e-12   146
  3.315891e-03   4.382830e-10   5.645617e-04   1.536716e-11   1042
  5.255560e-03   1.594468e-09   5.631710e-04   3.330995e-11   2698
  7.226238e-03   4.388752e-09   5.714963e-04   6.443592e-11   5206
  9.236952e-03   9.679231e-09   5.879031e-04   1.111192e-10   8752
  1.128500e-02   1.847971e-08   5.950186e-04   1.647761e-10   13258
  1.332029e-02   3.158667e-08   5.812860e-04   2.399936e-10   18070
  1.533799e-02   4.844302e-08   5.833601e-04   3.160682e-10   24050
  1.738769e-02   6.970979e-08   5.989399e-04   3.953710e-10   31720
  1.943477e-02   9.590507e-08   5.849109e-04   4.872751e-10   38722
  2.146405e-02   1.245066e-07   5.862639e-04   5.800131e-10   47398
  2.349979e-02   1.576434e-07   5.882944e-04   6.613291e-10   56986
  2.554151e-02   1.946921e-07   5.907046e-04   7.568886e-10   67552
  2.758014e-02   2.365289e-07   5.872674e-04   8.478180e-10   78310
  2.961557e-02   2.742200e-07   5.882808e-04   9.187985e-10   90514
  3.164924e-02   3.199960e-07   5.857631e-04   1.008280e-09   102938
  3.368563e-02   3.605897e-07   5.901325e-04   1.055444e-09   117412
  3.572860e-02   4.127964e-07   5.900212e-04   1.135708e-09   132106
  3.776869e-02   4.616078e-07   5.879385e-04   1.205113e-09   147154
  3.980581e-02   5.099584e-07   5.881164e-04   1.262428e-09   163522
  4.184971e-02   5.650527e-07   5.917380e-04   1.326889e-09   181804
  4.388716e-02   6.215174e-07   5.852792e-04   1.408713e-09   197722
  4.592521e-02   6.820300e-07   5.913571e-04   1.457428e-09   218866
  4.796858e-02   7.552010e-07   5.883333e-04   1.549403e-09   237542
  5.000645e-02   8.222193e-07   5.882751e-04   1.620340e-09   258136
  5.204613e-02   8.979143e-07   5.892119e-04   1.701579e-09   280066
  5.408484e-02   9.749172e-07   5.879532e-04   1.781135e-09   301774
  5.612494e-02   1.061794e-06   5.897386e-04   1.857072e-09   326050
  5.816725e-02   1.156798e-06   5.892357e-04   1.963053e-09   349792
  6.020894e-02   1.253574e-06   5.898220e-04   2.055965e-09   375154
  6.224878e-02   1.350474e-06   5.878390e-04   2.148227e-09   399742
  6.428502e-02   1.459542e-06   5.877282e-04   2.237553e-09   426266
  6.632420e-02   1.558635e-06   5.892967e-04   2.314957e-09   454960
  6.836448e-02   1.664262e-06   5.887382e-04   2.397200e-09   482734
  7.040483e-02   1.770529e-06   5.895060e-04   2.474699e-09   512746
  7.244666e-02   1.874015e-06   5.892082e-04   2.544224e-09   542746
  7.448833e-02   1.958938e-06   5.895081e-04   2.586672e-09   573952
  7.652873e-02   2.053097e-06   5.886192e-04   2.655678e-09   604918
  7.856782e-02   2.149733e-06   5.887181e-04   2.695082e-09   637666
  8.060887e-02   2.226130e-06   5.897344e-04   2.709758e-09   672482
  8.265024e-02   2.313266e-06   5.887854e-04   2.754034e-09   705748
  8.468883e-02   2.380370e-06   5.884884e-04   2.759999e-09   740482
  8.673009e-02   2.446430e-06   5.901845e-04   2.768150e-09   779026
  8.877006e-02   2.506791e-06   5.875992e-04   2.780931e-09   812614
  9.081033e-02   2.572907e-06   5.902277e-04   2.785869e-09   854200
  9.285241e-02   2.639669e-06   5.887737e-04   2.798339e-09   890746
  9.489189e-02   2.703462e-06   5.888028e-04   2.798119e-09   930394
  9.693174e-02   2.772497e-06   5.888121e-04   2.819362e-09   970982
  9.897209e-02   2.841817e-06   5.890745e-04   2.825948e-09   1012600
  1.010137e-01   2.915850e-06   5.897237e-04   2.842851e-09   1055890
  1.030542e-01   2.997456e-06   5.884073e-04   2.875699e-09   1096630
  1.050933e-01   3.080740e-06   5.887890e-04   2.887254e-09   1141378
  1.071337e-01   3.176952e-06   5.890564e-04   2.921145e-09   1186552
  1.091740e-01   3.281545e-06   5.889981e-04   2.960843e-09   1231798
  1.112148e-01   3.390695e-06   5.893633e-04   3.005744e-09   1279234
  1.132559e-01   3.513878e-06   5.890093e-04   3.057239e-09   1325906
  1.152965e-01   3.642131e-06   5.891197e-04   3.112059e-09   1374352
  1.173364e-01   3.768623e-06   5.886007e-04   3.167562e-09   1421950
  1.193758e-01   3.916203e-06   5.890300e-04   3.231094e-09   1472962
  1.214157e-01   4.048151e-06   5.886064e-04   3.283301e-09   1522954
  1.234545e-01   4.182161e-06   5.884752e-04   3.339927e-09   1573804
  1.254965e-01   4.324501e-06   5.906693e-04   3.386045e-09   1632274
  1.275390e-01   4.457339e-06   5.886302e-04   3.439833e-09   1680226
  1.295769e-01   4.581535e-06   5.879889e-04   3.489577e-09   1732682
  1.316167e-01   4.705805e-06   5.894980e-04   3.516187e-09   1792204
  1.336589e-01   4.824578e-06   5.896575e-04   3.548738e-09   1848298
  1.356989e-01   4.925496e-06   5.883050e-04   3.583117e-09   1901050
  1.377383e-01   5.014283e-06   5.890297e-04   3.578617e-09   1961326
  1.397792e-01   5.093628e-06   5.892228e-04   3.592319e-09   2020312
  1.418209e-01   5.179984e-06   5.895741e-04   3.593768e-09   2080930
  1.438627e-01   5.241879e-06   5.893024e-04   3.586116e-09   2140390
  1.459026e-01   5.304271e-06   5.883405e-04   3.584836e-09   2198162
  1.479427e-01   5.351795e-06   5.893956e-04   3.558239e-09   2263864
  1.499842e-01   5.404076e-06   5.893769e-04   3.542794e-09   2326426
  1.520249e-01   5.448565e-06   5.889045e-04   3.523769e-09   2388550
  1.540650e-01   5.486811e-06   5.888570e-04   3.499990e-09   2453098
  1.561047e-01   5.536973e-06   5.886971e-04   3.490107e-09   2517592
  1.581449e-01   5.598250e-06   5.892905e-04   3.490302e-09   2586070
  1.601854e-01   5.645880e-06   5.889181e-04   3.468663e-09   2651842
  1.622257e-01   5.705984e-06   5.889579e-04   3.451028e-09   2720330
  1.642669e-01   5.777229e-06   5.894439e-04   3.463519e-09   2791156
  1.663078e-01   5.858032e-06   5.889934e-04   3.468589e-09   2858554
  1.683481e-01   5.943824e-06   5.890635e-04   3.473660e-09   2929594
  1.703877e-01   6.041114e-06   5.885431e-04   3.488366e-09   2998762
  1.724278e-01   6.143061e-06   5.891948e-04   3.506978e-09   3074188
  1.744675e-01   6.267760e-06   5.885376e-04   3.533537e-09   3143482
  1.765088e-01   6.385021e-06   5.900653e-04   3.554260e-09   3226186
  1.785498e-01   6.507473e-06   5.882615e-04   3.596860e-09   3291158
  1.805901e-01   6.641414e-06   5.897179e-04   3.617121e-09   3375112
  1.826317e-01   6.782091e-06   5.890290e-04   3.655796e-09   3447658
  1.846719e-01   6.909180e-06   5.889171e-04   3.683548e-09   3524626
  1.867120e-01   7.040076e-06   5.888543e-04   3.715543e-09   3602998
  1.887512e-01   7.169798e-06   5.883706e-04   3.739902e-09   3678592
  1.907908e-01   7.287805e-06   5.892546e-04   3.756300e-09   3764122
  1.928324e-01   7.405244e-06   5.894579e-04   3.779061e-09   3846598
  1.948727e-01   7.521514e-06   5.885077e-04   3.797076e-09   3922250
  1.969136e-01   7.615133e-06   5.896943e-04   3.808041e-09   4013032
  1.989552e-01   7.700896e-06   5.889700e-04   3.805716e-09   4091182
  2.009950e-01   7.779952e-06   5.887664e-04   3.812835e-09   4174282
  2.030353e-01   7.850638e-06   5.891040e-04   3.805202e-09   4261978
  2.050762e-01   7.904461e-06   5.892160e-04   3.790847e-09   4348624
  2.071163e-01   7.960468e-06   5.886637e-04   3.782720e-09   4431430
  2.091564e-01   7.999726e-06   5.892138e-04   3.765568e-09   4523290
  2.111972e-01   8.046751e-06   5.891043e-04   3.752458e-09   4611386
  2.132376e-01   8.086823e-06   5.888473e-04   3.736244e-09   4698814
  2.152782e-01   8.123342e-06   5.893426e-04   3.711064e-09   4792984
  2.173194e-01   8.162775e-06   5.892017e-04   3.694343e-09   4883194
  2.193596e-01   8.184670e-06   5.887755e-04   3.674865e-09   4971694
  2.214001e-01   8.223294e-06   5.893212e-04   3.655934e-09   5069434
  2.234405e-01   8.281347e-06   5.886957e-04   3.649987e-09   5157736
  2.254804e-01   8.328830e-06   5.891220e-04   3.642459e-09   5256202
  2.275212e-01   8.380534e-06   5.891252e-04   3.627997e-09   5351990
  2.295614e-01   8.443652e-06   5.887454e-04   3.621321e-09   5444914
  2.316024e-01   8.514893e-06   5.895775e-04   3.615203e-09   5550088
  2.336441e-01   8.594840e-06   5.892314e-04   3.617775e-09   5644774
  2.356844e-01   8.671956e-06   5.887291e-04   3.623498e-09   5739034
  2.377243e-01   8.768310e-06   5.889493e-04   3.632894e-09   5841154
  2.397648e-01   8.858440e-06   5.891188e-04   3.635788e-09   5943448
  2.418057e-01   8.958324e-06   5.891894e-04   3.646077e-09   6045670
  2.438457e-01   9.069551e-06   5.886738e-04   3.662299e-09   6142586
  2.458857e-01   9.167330e-06   5.890965e-04   3.668065e-09   6250738
  2.479269e-01   9.271246e-06   5.893339e-04   3.681743e-09   6357172
  2.499678e-01   9.369834e-06   5.890271e-04   3.689679e-09   6458506
  2.520084e-01   9.474193e-06   5.891472e-04   3.699885e-09   6566290
  2.540484e-01   9.559650e-06   5.886483e-04   3.708286e-09   6667414
  2.560881e-01   9.652255e-06   5.889729e-04   3.708401e-09   6778336
  2.581289e-01   9.747103e-06   5.893065e-04   3.715660e-09   6890218
  2.601690e-01   9.826356e-06   5.886464e-04   3.720690e-09   6992306
  2.622097e-01   9.895548e-06   5.895050e-04   3.717732e-09   7113454
  2.642508e-01   9.967158e-06   5.888931e-04   3.716922e-09   7216216
  2.662907e-01   1.002035e-05   5.889220e-04   3.703462e-09   7328218
  2.683311e-01   1.007068e-05   5.891504e-04   3.696930e-09   7444414
  2.703714e-01   1.011113e-05   5.887477e-04   3.685373e-09   7553290
  2.724122e-01   1.015482e-05   5.894442e-04   3.670255e-09   7676368
  2.744529e-01   1.020057e-05   5.888427e-04   3.664098e-09   7783150
  2.764932e-01   1.022606e-05   5.891771e-04   3.642845e-09   7904570
  2.785337e-01   1.025152e-05   5.888377e-04   3.628230e-09   8017570
  2.805747e-01   1.028545e-05   5.894749e-04   3.610193e-09   8143840
  2.826158e-01   1.032057e-05   5.889589e-04   3.598773e-09   8255134
  2.846555e-01   1.034410e-05   5.886996e-04   3.581243e-09   8371450
  2.866957e-01   1.037870e-05   5.891278e-04   3.568617e-09   8498578
  2.887371e-01   1.041901e-05   5.893995e-04   3.554333e-09   8623180
  2.907783e-01   1.045954e-05   5.891794e-04   3.545573e-09   8742034
  2.928185e-01   1.050252e-05   5.887409e-04   3.536341e-09   8859194
  2.948582e-01   1.054340e-05   5.888043e-04   3.525241e-09   8984386
  2.968984e-01   1.060228e-05   5.889953e-04   3.519836e-09   9111652
  2.989394e-01   1.065761e-05   5.894313e-04   3.512124e-09   9243322
  3.009801e-01   1.071262e-05   5.888434e-04   3.510918e-09   9361378
  3.030204e-01   1.077721e-05   5.890316e-04   3.508621e-09   9491998
  3.050606e-01   1.084788e-05   5.889315e-04   3.505659e-09   9618016
  3.071010e-01   1.091737e-05   5.891205e-04   3.506997e-09   9750178
  3.091413e-01   1.096965e-05   5.888404e-04   3.498837e-09   9875558
  3.111820e-01   1.106099e-05   5.893640e-04   3.503793e-09   10015834
  3.132223e-01   1.111212e-05   5.885801e-04   3.500897e-09   10133344
  3.152627e-01   1.118399e-05   5.895529e-04   3.498685e-09   10282522
  3.173040e-01   1.125294e-05   5.889812e-04   3.498964e-09   10406974
  3.193437e-01   1.130281e-05   5.886096e-04   3.493986e-09   10534378
  3.213841e-01   1.136844e-05   5.894405e-04   3.485532e-09   10684456
  3.234254e-01   1.143276e-05   5.890917e-04   3.484939e-09   10813894
  3.254654e-01   1.147995e-05   5.887488e-04   3.481956e-09   10944626
  3.275058e-01   1.152775e-05   5.892300e-04   3.473226e-09   11091802
  3.295466e-01   1.157091e-05   5.889694e-04   3.465063e-09   11224756
  3.315871e-01   1.160400e-05   5.891399e-04   3.450932e-09   11367730
  3.336279e-01   1.164814e-05   5.891097e-04   3.443908e-09   11507890
  3.356680e-01   1.168229e-05   5.886912e-04   3.434896e-09   11640658
  3.377084e-01   1.171066e-05   5.893412e-04   3.425002e-09   11795380
  3.397495e-01   1.173320e-05   5.891216e-04   3.408300e-09   11933434
  3.417900e-01   1.175687e-05   5.889963e-04   3.396782e-09   12074954
  3.438308e-01   1.178791e-05   5.892532e-04   3.383832e-09   12225142
  3.458709e-01   1.180908e-05   5.885745e-04   3.372970e-09   12356104
  3.479106e-01   1.182929e-05   5.891058e-04   3.356841e-09   12513442
  3.499516e-01   1.186033e-05   5.892873e-04   3.345188e-09   12664810
  3.519928e-01   1.187436e-05   5.891937e-04   3.330549e-09   12811246
  3.540334e-01   1.190339e-05   5.889181e-04   3.318702e-09   12953536
  3.560735e-01   1.193441e-05   5.890044e-04   3.312735e-09   13105042
  3.581140e-01   1.195534e-05   5.891192e-04   3.296196e-09   13258670
  3.601546e-01   1.199130e-05   5.890325e-04   3.290546e-09   13408738
  3.621953e-01   1.202132e-05   5.890899e-04   3.278892e-09   13562320
  3.642355e-01   1.206098e-05   5.888450e-04   3.275505e-09   13709062
  3.662757e-01   1.208760e-05   5.891202e-04   3.258498e-09   13870258
  3.683171e-01   1.212439e-05   5.894186e-04   3.252283e-09   14032714
  3.703575e-01   1.216709e-05   5.886241e-04   3.249847e-09   14169232
  3.723976e-01   1.220766e-05   5.891956e-04   3.241018e-09   14339422
  3.744381e-01   1.224194e-05   5.888919e-04   3.232681e-09   14489330
  3.764785e-01   1.227913e-05   5.891282e-04   3.223054e-09   14654458
  3.785190e-01   1.232022e-05   5.889293e-04   3.221349e-09   14808292
  3.805593e-01   1.235839e-05   5.890179e-04   3.210761e-09   14970130
  3.825997e-01   1.240075e-05   5.890254e-04   3.205908e-09   15131626
  3.846399e-01   1.243365e-05   5.888648e-04   3.198373e-09   15289198
  3.866807e-01   1.247168e-05   5.894136e-04   3.189652e-09   15466552
  3.887217e-01   1.249645e-05   5.889267e-04   3.180392e-09   15616714
  3.907617e-01   1.252540e-05   5.889009e-04   3.173273e-09   15780506
  3.928022e-01   1.255072e-05   5.891699e-04   3.162459e-09   15953542
  3.948433e-01   1.258463e-05   5.892495e-04   3.152892e-09   16121296
  3.968834e-01   1.260417e-05   5.886227e-04   3.146391e-09   16270762
  3.989235e-01   1.261424e-05   5.892919e-04   3.130037e-09   16457182
  4.009646e-01   1.264003e-05   5.891739e-04   3.119903e-09   16623562
  4.030052e-01   1.265226e-05   5.889160e-04   3.107861e-09   16785784
  4.050455e-01   1.267674e-05   5.890644e-04   3.098798e-09   16959370
  4.070861e-01   1.269093e-05   5.891235e-04   3.087361e-09   17132774
  4.091266e-01   1.269053e-05   5.889569e-04   3.073990e-09   17300602
  4.111672e-01   1.270140e-05   5.891834e-04   3.059412e-09   17480656
  4.132078e-01   1.271902e-05   5.889644e-04   3.050245e-09   17647558
  4.152481e-01   1.273120e-05   5.890172e-04   3.039315e-09   17823778
  4.172887e-01   1.275590e-05   5.890581e-04   3.028101e-09   18001594
  4.193290e-01   1.276557e-05   5.888841e-04   3.017318e-09   18172300
  4.213694e-01   1.277091e-05   5.891306e-04   3.005648e-09   18356770
  4.234105e-01   1.278586e-05   5.893313e-04   2.995588e-09   18541082
  4.254516e-01   1.280094e-05   5.891095e-04   2.983003e-09   18713914
  4.274917e-01   1.281415e-05   5.886533e-04   2.975557e-09   18879742
  4.295318e-01   1.282494e-05   5.892187e-04   2.960767e-09   19077592
  4.315727e-01   1.284285e-05   5.891074e-04   2.950134e-09   19255474
  4.336133e-01   1.285566e-05   5.890497e-04   2.940198e-09   19436278
  4.356531e-01   1.287512e-05   5.886327e-04   2.934940e-09   19605994
  4.376936e-01   1.289316e-05   5.894559e-04   2.923905e-09   19817344
  4.397347e-01   1.291667e-05   5.889775e-04   2.914636e-09   19985702
  4.417750e-01   1.291391e-05   5.890630e-04   2.902061e-09   20175730
  4.438152e-01   1.293320e-05   5.887860e-04   2.894490e-09   20352682
  4.458557e-01   1.295511e-05   5.893597e-04   2.886713e-09   20559616
  4.478969e-01   1.296464e-05   5.891648e-04   2.876002e-09   20741518
  4.499369e-01   1.298389e-05   5.886230e-04   2.867906e-09   20912026
  4.519768e-01   1.299067e-05   5.891225e-04   2.855583e-09   21121018
  4.540176e-01   1.300253e-05   5.890883e-04   2.847233e-09   21310012
  4.560579e-01   1.301327e-05   5.889301e-04   2.837929e-09   21496154
  4.580989e-01   1.302476e-05   5.893557e-04   2.826779e-09   21705946
  4.601398e-01   1.302972e-05   5.889070e-04   2.815055e-09   21882562
  4.621802e-01   1.303912e-05   5.891458e-04   2.805933e-09   22085428
  4.642214e-01   1.304486e-05   5.893143e-04   2.795533e-09   22287106
  4.662615e-01   1.304461e-05   5.885500e-04   2.786316e-09   22455010
  4.683013e-01   1.305784e-05   5.890571e-04   2.776239e-09   22671694
  4.703421e-01   1.305319e-05   5.892012e-04   2.763047e-09   22874368
  4.723830e-01   1.306009e-05   5.891203e-04   2.754221e-09   23070146
  4.744235e-01   1.306202e-05   5.889653e-04   2.744311e-09   23264038
  4.764637e-01   1.306082e-05   5.889570e-04   2.731360e-09   23464210
  4.785045e-01   1.305997e-05   5.893101e-04   2.718697e-09   23679208
  4.805453e-01   1.306159e-05   5.889894e-04   2.709695e-09   23868658
  4.825856e-01   1.305173e-05   5.889440e-04   2.697474e-09   24070582
  4.846259e-01   1.306057e-05   5.890549e-04   2.686745e-09   24278842
  4.866664e-01   1.305174e-05   5.890268e-04   2.675561e-09   24482272
  4.887069e-01   1.305017e-05   5.890750e-04   2.664629e-09   24689510
  4.907474e-01   1.305435e-05   5.890195e-04   2.655149e-09   24894634
  4.927881e-01   1.305715e-05   5.891565e-04   2.645097e-09   25108474
  4.948289e-01   1.304635e-05   5.890919e-04   2.631408e-09   25313116
  4.968692e-01   1.305223e-05   5.889389e-04   2.624175e-09   25515970
  4.989095e-01   1.305258e-05   5.889848e-04   2.612950e-09   25727962
  5.009501e-01   1.304545e-05   5.892016e-04   2.601526e-09   25948954
  5.029911e-01   1.304588e-05   5.891242e-04   2.592127e-09   26157220
  5.050312e-01   1.304638e-05   5.887329e-04   2.583189e-09   26351546
  5.070713e-01   1.304895e-05   5.891599e-04   2.574157e-09   26585314
  5.091124e-01   1.304587e-05   5.891783e-04   2.562796e-09   26800630
  5.111529e-01   1.304140e-05   5.889142e-04   2.553857e-09   27003376
  5.131928e-01   1.303575e-05   5.887939e-04   2.543948e-09   27213202
  5.152333e-01   1.302785e-05   5.893371e-04   2.530502e-09   27455194
  5.172745e-01   1.302747e-05   5.891605e-04   2.521781e-09   27666070
  5.193150e-01   1.303396e-05   5.888642e-04   2.513993e-09   27870280
  5.213548e-01   1.301600e-05   5.888416e-04   2.501216e-09   28088090
  5.233952e-01   1.301099e-05   5.892064e-04   2.490397e-09   28326262
  5.254363e-01   1.301620e-05   5.891855e-04   2.482655e-09   28546906
  5.274771e-01   1.300628e-05   5.890514e-04   2.473187e-09   28762552
  5.295175e-01   1.299869e-05   5.889643e-04   2.463637e-09   28979734
  5.315579e-01   1.298187e-05   5.891116e-04   2.450447e-09   29211106
  5.335984e-01   1.298161e-05   5.890058e-04   2.442255e-09   29431738
  5.356386e-01   1.297514e-05   5.888449e-04   2.432201e-09   29648776
  5.376788e-01   1.296151e-05   5.891295e-04   2.421181e-09   29888654
  5.397198e-01   1.295253e-05   5.892792e-04   2.410623e-09   30123490
  5.417605e-01   1.293829e-05   5.889187e-04   2.400912e-09   30334570
  5.438008e-01   1.293070e-05   5.889866e-04   2.391186e-09   30566524
  5.458411e-01   1.292192e-05   5.890413e-04   2.380115e-09   30798370
  5.478823e-01   1.290587e-05   5.894562e-04   2.369281e-09   31052026
  5.499229e-01   1.289958e-05   5.886551e-04   2.361206e-09   31241782
  5.519630e-01   1.288859e-05   5.891853e-04   2.350131e-09   31502128
  5.540036e-01   1.287529e-05   5.889524e-04   2.340653e-09   31721474
  5.560439e-01   1.285972e-05   5.890206e-04   2.330421e-09   31960210
  5.580845e-01   1.284244e-05   5.890910e-04   2.319126e-09   32200582
  5.601251e-01   1.283131e-05   5.889897e-04   2.308950e-09   32429512
  5.621660e-01   1.282201e-05   5.893423e-04   2.298918e-09   32685226
  5.642068e-01   1.280608e-05   5.889439e-04   2.290595e-09   32900830
  5.662468e-01   1.279991e-05   5.888631e-04   2.282139e-09   33135682
  5.682871e-01   1.277594e-05   5.890598e-04   2.269041e-09   33385288
  5.703276e-01   1.276841e-05   5.890887e-04   2.260133e-09   33625706
  5.723684e-01   1.275314e-05   5.891781e-04   2.249393e-09   33873550
  5.744087e-01   1.273537e-05   5.887629e-04   2.240658e-09   34091770
  5.764491e-01   1.272360e-05   5.892514e-04   2.232165e-09   34362160
