# power spectrum of phi_prime/H (dimensionless)
# redshift z=-0.034717
# k              Pk             sigma(k)       sigma(Pk)      count
  1.554082e-03   9.578375e-11   3.849967e-04   9.230663e-12   146
  3.315891e-03   9.973411e-11   5.645617e-04   2.985025e-12   1042
  5.255560e-03   8.807893e-11   5.631710e-04   1.768466e-12   2698
  7.226238e-03   7.758464e-11   5.714963e-04   1.077043e-12   5206
  9.236952e-03   6.875959e-11   5.879031e-04   7.636845e-13   8752
  1.128500e-02   6.148968e-11   5.950186e-04   5.378361e-13   13258
  1.332029e-02   5.518499e-11   5.812860e-04   4.143631e-13   18070
  1.533799e-02   4.887871e-11   5.833601e-04   3.152428e-13   24050
  1.738769e-02   4.303346e-11   5.989399e-04   2.410754e-13   31720
  1.943477e-02   3.828566e-11   5.849109e-04   1.941673e-13   38722
  2.146405e-02   3.358575e-11   5.862639e-04   1.559095e-13   47398
  2.349979e-02   2.979256e-11   5.882944e-04   1.246335e-13   56986
  2.554151e-02   2.648245e-11   5.907046e-04   1.026924e-13   67552
  2.758014e-02   2.378233e-11   5.872674e-04   8.507782e-14   78310
  2.961557e-02   2.083828e-11   5.882808e-04   6.977076e-14   90514
  3.164924e-02   1.873554e-11   5.857631e-04   5.906487e-14   102938
  3.368563e-02   1.651950e-11   5.901325e-04   4.827097e-14   117412
  3.572860e-02   1.501777e-11   5.900212e-04   4.135453e-14   132106
  3.776869e-02   1.351079e-11   5.879385e-04   3.530270e-14   147154
  3.980581e-02   1.215712e-11   5.881164e-04   3.009811e-14   163522
  4.184971e-02   1.107621e-11   5.917380e-04   2.599129e-14   181804
  4.388716e-02   1.012741e-11   5.852792e-04   2.292923e-14   197722
  4.592521e-02   9.320162e-12   5.913571e-04   1.990750e-14   218866
  4.796858e-02   8.721619e-12   5.883333e-04   1.789370e-14   237542
  5.000645e-02   8.085842e-12   5.882751e-04   1.592697e-14   258136
  5.204613e-02   7.571950e-12   5.892119e-04   1.434064e-14   280066
  5.408484e-02   7.092076e-12   5.879532e-04   1.294817e-14   301774
  5.612494e-02   6.706134e-12   5.897386e-04   1.173099e-14   326050
  5.816725e-02   6.373711e-12   5.892357e-04   1.080916e-14   349792
  6.020894e-02   6.059008e-12   5.898220e-04   9.932460e-15   375154
  6.224878e-02   5.753195e-12   5.878390e-04   9.150295e-15   399742
  6.428502e-02   5.506765e-12   5.877282e-04   8.439619e-15   426266
  6.632420e-02   5.229006e-12   5.892967e-04   7.766183e-15   454960
  6.836448e-02   4.984831e-12   5.887382e-04   7.184849e-15   482734
  7.040483e-02   4.750932e-12   5.895060e-04   6.639820e-15   512746
  7.244666e-02   4.522878e-12   5.892082e-04   6.139194e-15   542746
  7.448833e-02   4.263087e-12   5.895081e-04   5.632120e-15   573952
  7.652873e-02   4.043728e-12   5.886192e-04   5.228592e-15   604918
  7.856782e-02   3.845420e-12   5.887181e-04   4.822324e-15   637666
  8.060887e-02   3.625786e-12   5.897344e-04   4.414729e-15   672482
  8.265024e-02   3.439269e-12   5.887854e-04   4.093486e-15   705748
  8.468883e-02   3.240672e-12   5.884884e-04   3.758426e-15   740482
  8.673009e-02   3.058594e-12   5.901845e-04   3.461225e-15   779026
  8.877006e-02   2.881615e-12   5.875992e-04   3.200869e-15   812614
  9.081033e-02   2.729575e-12   5.902277e-04   2.956670e-15   854200
  9.285241e-02   2.587692e-12   5.887737e-04   2.744011e-15   890746
  9.489189e-02   2.454846e-12   5.888028e-04   2.542152e-15   930394
  9.693174e-02   2.336690e-12   5.888121e-04   2.377369e-15   970982
  9.897209e-02   2.228444e-12   5.890745e-04   2.215162e-15   1012600
  1.010137e-01   2.130608e-12   5.897237e-04   2.079397e-15   1055890
  1.030542e-01   2.044431e-12   5.884073e-04   1.964057e-15   1096630
  1.050933e-01   1.965148e-12   5.887890e-04   1.842695e-15   1141378
  1.071337e-01   1.897439e-12   5.890564e-04   1.743203e-15   1186552
  1.091740e-01   1.838788e-12   5.889981e-04   1.660058e-15   1231798
  1.112148e-01   1.785205e-12   5.893633e-04   1.582933e-15   1279234
  1.132559e-01   1.739964e-12   5.890093e-04   1.512733e-15   1325906
  1.152965e-01   1.699849e-12   5.891197e-04   1.452499e-15   1374352
  1.173364e-01   1.658443e-12   5.886007e-04   1.395164e-15   1421950
  1.193758e-01   1.628800e-12   5.890300e-04   1.344159e-15   1472962
  1.214157e-01   1.591141e-12   5.886064e-04   1.291326e-15   1522954
  1.234545e-01   1.555745e-12   5.884752e-04   1.241764e-15   1573804
  1.254965e-01   1.525066e-12   5.906693e-04   1.194582e-15   1632274
  1.275390e-01   1.492339e-12   5.886302e-04   1.151772e-15   1680226
  1.295769e-01   1.456583e-12   5.879889e-04   1.109638e-15   1732682
  1.316167e-01   1.423808e-12   5.894980e-04   1.064557e-15   1792204
  1.336589e-01   1.389838e-12   5.896575e-04   1.022624e-15   1848298
  1.356989e-01   1.354321e-12   5.883050e-04   9.856127e-16   1901050
  1.377383e-01   1.316419e-12   5.890297e-04   9.406357e-16   1961326
  1.397792e-01   1.277988e-12   5.892228e-04   9.013308e-16   2020312
  1.418209e-01   1.243509e-12   5.895741e-04   8.634435e-16   2080930
  1.438627e-01   1.205856e-12   5.893024e-04   8.247756e-16   2140390
  1.459026e-01   1.170626e-12   5.883405e-04   7.912774e-16   2198162
  1.479427e-01   1.133995e-12   5.893956e-04   7.542906e-16   2263864
  1.499842e-01   1.101009e-12   5.893769e-04   7.224022e-16   2326426
  1.520249e-01   1.068562e-12   5.889045e-04   6.919626e-16   2388550
  1.540650e-01   1.036116e-12   5.888570e-04   6.623633e-16   2453098
  1.561047e-01   1.008344e-12   5.886971e-04   6.363530e-16   2517592
  1.581449e-01   9.837252e-13   5.892905e-04   6.124348e-16   2586070
  1.601854e-01   9.580531e-13   5.889181e-04   5.889382e-16   2651842
  1.622257e-01   9.341639e-13   5.889579e-04   5.660570e-16   2720330
  1.642669e-01   9.149698e-13   5.894439e-04   5.483435e-16   2791156
  1.663078e-01   8.967005e-13   5.889934e-04   5.311087e-16   2858554
  1.683481e-01   8.810627e-13   5.890635e-04   5.149980e-16   2929594
  1.703877e-01   8.657461e-13   5.885431e-04   5.002686e-16   2998762
  1.724278e-01   8.521160e-13   5.891948e-04   4.867644e-16   3074188
  1.744675e-01   8.419153e-13   5.885376e-04   4.754318e-16   3143482
  1.765088e-01   8.300101e-13   5.900653e-04   4.622369e-16   3226186
  1.785498e-01   8.198143e-13   5.882615e-04   4.529881e-16   3291158
  1.805901e-01   8.097560e-13   5.897179e-04   4.412656e-16   3375112
  1.826317e-01   8.011867e-13   5.890290e-04   4.317290e-16   3447658
  1.846719e-01   7.924308e-13   5.889171e-04   4.230418e-16   3524626
  1.867120e-01   7.830053e-13   5.888543e-04   4.131447e-16   3602998
  1.887512e-01   7.744202e-13   5.883706e-04   4.039754e-16   3678592
  1.907908e-01   7.654759e-13   5.892546e-04   3.948557e-16   3764122
  1.928324e-01   7.559832e-13   5.894579e-04   3.860273e-16   3846598
  1.948727e-01   7.456260e-13   5.885077e-04   3.769295e-16   3922250
  1.969136e-01   7.363077e-13   5.896943e-04   3.685656e-16   4013032
  1.989552e-01   7.257959e-13   5.889700e-04   3.591601e-16   4091182
  2.009950e-01   7.152738e-13   5.887664e-04   3.506661e-16   4174282
  2.030353e-01   7.046537e-13   5.891040e-04   3.419138e-16   4261978
  2.050762e-01   6.931290e-13   5.892160e-04   3.329341e-16   4348624
  2.071163e-01   6.840304e-13   5.886637e-04   3.256785e-16   4431430
  2.091564e-01   6.726818e-13   5.892138e-04   3.169113e-16   4523290
  2.111972e-01   6.631345e-13   5.891043e-04   3.091874e-16   4611386
  2.132376e-01   6.537210e-13   5.888473e-04   3.024238e-16   4698814
  2.152782e-01   6.436137e-13   5.893426e-04   2.943227e-16   4792984
  2.173194e-01   6.344710e-13   5.892017e-04   2.875799e-16   4883194
  2.193596e-01   6.246348e-13   5.887755e-04   2.808547e-16   4971694
  2.214001e-01   6.172259e-13   5.893212e-04   2.746291e-16   5069434
  2.234405e-01   6.093845e-13   5.886957e-04   2.688282e-16   5157736
  2.254804e-01   6.018782e-13   5.891220e-04   2.632173e-16   5256202
  2.275212e-01   5.948114e-13   5.891252e-04   2.576165e-16   5351990
  2.295614e-01   5.876125e-13   5.887454e-04   2.522507e-16   5444914
  2.316024e-01   5.828609e-13   5.895775e-04   2.478832e-16   5550088
  2.336441e-01   5.766368e-13   5.892314e-04   2.434397e-16   5644774
  2.356844e-01   5.717732e-13   5.887291e-04   2.389642e-16   5739034
  2.377243e-01   5.668818e-13   5.889493e-04   2.350014e-16   5841154
  2.397648e-01   5.616826e-13   5.891188e-04   2.306402e-16   5943448
  2.418057e-01   5.577267e-13   5.891894e-04   2.274586e-16   6045670
  2.438457e-01   5.532308e-13   5.886738e-04   2.236868e-16   6142586
  2.458857e-01   5.486859e-13   5.890965e-04   2.197700e-16   6250738
  2.479269e-01   5.449307e-13   5.893339e-04   2.166829e-16   6357172
  2.499678e-01   5.408699e-13   5.890271e-04   2.132626e-16   6458506
  2.520084e-01   5.368904e-13   5.891472e-04   2.101107e-16   6566290
  2.540484e-01   5.327983e-13   5.886483e-04   2.068917e-16   6667414
  2.560881e-01   5.287571e-13   5.889729e-04   2.036697e-16   6778336
  2.581289e-01   5.250840e-13   5.893065e-04   2.007018e-16   6890218
  2.601690e-01   5.205902e-13   5.886464e-04   1.975327e-16   6992306
  2.622097e-01   5.165861e-13   5.895050e-04   1.941930e-16   7113454
  2.642508e-01   5.127679e-13   5.888931e-04   1.914451e-16   7216216
  2.662907e-01   5.086200e-13   5.889220e-04   1.882623e-16   7328218
  2.683311e-01   5.045690e-13   5.891504e-04   1.854875e-16   7444414
  2.703714e-01   5.007518e-13   5.887477e-04   1.829605e-16   7553290
  2.724122e-01   4.966883e-13   5.894442e-04   1.798381e-16   7676368
  2.744529e-01   4.924693e-13   5.888427e-04   1.771828e-16   7783150
  2.764932e-01   4.891430e-13   5.891771e-04   1.746091e-16   7904570
  2.785337e-01   4.854392e-13   5.888377e-04   1.721959e-16   8017570
  2.805747e-01   4.818345e-13   5.894749e-04   1.695851e-16   8143840
  2.826158e-01   4.782857e-13   5.889589e-04   1.670305e-16   8255134
  2.846555e-01   4.742752e-13   5.886996e-04   1.645742e-16   8371450
  2.866957e-01   4.714256e-13   5.891278e-04   1.623685e-16   8498578
  2.887371e-01   4.680317e-13   5.893995e-04   1.599811e-16   8623180
  2.907783e-01   4.651663e-13   5.891794e-04   1.580471e-16   8742034
  2.928185e-01   4.619456e-13   5.887409e-04   1.559114e-16   8859194
  2.948582e-01   4.594034e-13   5.888043e-04   1.538255e-16   8984386
  2.968984e-01   4.564458e-13   5.889953e-04   1.518151e-16   9111652
  2.989394e-01   4.535615e-13   5.894313e-04   1.496633e-16   9243322
  3.009801e-01   4.514454e-13   5.888434e-04   1.482072e-16   9361378
  3.030204e-01   4.489158e-13   5.890316e-04   1.464537e-16   9491998
  3.050606e-01   4.462739e-13   5.889315e-04   1.443773e-16   9618016
  3.071010e-01   4.437843e-13   5.891205e-04   1.428429e-16   9750178
  3.091413e-01   4.417023e-13   5.888404e-04   1.411864e-16   9875558
  3.111820e-01   4.395461e-13   5.893640e-04   1.395702e-16   10015834
  3.132223e-01   4.366247e-13   5.885801e-04   1.378788e-16   10133344
  3.152627e-01   4.349441e-13   5.895529e-04   1.363236e-16   10282522
  3.173040e-01   4.327916e-13   5.889812e-04   1.348405e-16   10406974
  3.193437e-01   4.302225e-13   5.886096e-04   1.332446e-16   10534378
  3.213841e-01   4.283218e-13   5.894405e-04   1.316351e-16   10684456
  3.234254e-01   4.261567e-13   5.890917e-04   1.302028e-16   10813894
  3.254654e-01   4.240706e-13   5.887488e-04   1.288704e-16   10944626
  3.275058e-01   4.222114e-13   5.892300e-04   1.274424e-16   11091802
  3.295466e-01   4.200542e-13   5.889694e-04   1.260776e-16   11224756
  3.315871e-01   4.177193e-13   5.891399e-04   1.245168e-16   11367730
  3.336279e-01   4.159348e-13   5.891097e-04   1.232793e-16   11507890
  3.356680e-01   4.139600e-13   5.886912e-04   1.219869e-16   11640658
  3.377084e-01   4.118390e-13   5.893412e-04   1.206082e-16   11795380
  3.397495e-01   4.098680e-13   5.891216e-04   1.191980e-16   11933434
  3.417900e-01   4.079084e-13   5.889963e-04   1.180192e-16   12074954
  3.438308e-01   4.064259e-13   5.892532e-04   1.168886e-16   12225142
  3.458709e-01   4.043551e-13   5.885745e-04   1.157034e-16   12356104
  3.479106e-01   4.028075e-13   5.891058e-04   1.145413e-16   12513442
  3.499516e-01   4.009435e-13   5.892873e-04   1.132970e-16   12664810
  3.519928e-01   3.991602e-13   5.891937e-04   1.121378e-16   12811246
  3.540334e-01   3.972420e-13   5.889181e-04   1.109940e-16   12953536
  3.560735e-01   3.958158e-13   5.890044e-04   1.099497e-16   13105042
  3.581140e-01   3.940655e-13   5.891192e-04   1.088943e-16   13258670
  3.601546e-01   3.925071e-13   5.890325e-04   1.078537e-16   13408738
  3.621953e-01   3.912736e-13   5.890899e-04   1.068858e-16   13562320
  3.642355e-01   3.893546e-13   5.888450e-04   1.058169e-16   13709062
  3.662757e-01   3.878813e-13   5.891202e-04   1.048098e-16   13870258
  3.683171e-01   3.862683e-13   5.894186e-04   1.037791e-16   14032714
  3.703575e-01   3.851788e-13   5.886241e-04   1.029448e-16   14169232
  3.723976e-01   3.836307e-13   5.891956e-04   1.020667e-16   14339422
  3.744381e-01   3.820233e-13   5.888919e-04   1.009959e-16   14489330
  3.764785e-01   3.806066e-13   5.891282e-04   1.000930e-16   14654458
  3.785190e-01   3.790826e-13   5.889293e-04   9.922706e-17   14808292
  3.805593e-01   3.780000e-13   5.890179e-04   9.833062e-17   14970130
  3.825997e-01   3.767475e-13   5.890254e-04   9.752011e-17   15131626
  3.846399e-01   3.750416e-13   5.888648e-04   9.654382e-17   15289198
  3.866807e-01   3.736617e-13   5.894136e-04   9.567748e-17   15466552
  3.887217e-01   3.723796e-13   5.889267e-04   9.494622e-17   15616714
  3.907617e-01   3.709549e-13   5.889009e-04   9.405343e-17   15780506
  3.928022e-01   3.699485e-13   5.891699e-04   9.329304e-17   15953542
  3.948433e-01   3.688829e-13   5.892495e-04   9.258207e-17   16121296
  3.968834e-01   3.672288e-13   5.886227e-04   9.172202e-17   16270762
  3.989235e-01   3.660699e-13   5.892919e-04   9.097912e-17   16457182
  4.009646e-01   3.651014e-13   5.891739e-04   9.023574e-17   16623562
  4.030052e-01   3.638580e-13   5.889160e-04   8.952035e-17   16785784
  4.050455e-01   3.624981e-13   5.890644e-04   8.871924e-17   16959370
  4.070861e-01   3.612627e-13   5.891235e-04   8.794993e-17   17132774
  4.091266e-01   3.599406e-13   5.889569e-04   8.721294e-17   17300602
  4.111672e-01   3.587205e-13   5.891834e-04   8.645929e-17   17480656
  4.132078e-01   3.578758e-13   5.889644e-04   8.583498e-17   17647558
  4.152481e-01   3.567609e-13   5.890172e-04   8.516233e-17   17823778
  4.172887e-01   3.555840e-13   5.890581e-04   8.448884e-17   18001594
  4.193290e-01   3.545822e-13   5.888841e-04   8.385959e-17   18172300
  4.213694e-01   3.533009e-13   5.891306e-04   8.313629e-17   18356770
  4.234105e-01   3.522578e-13   5.893313e-04   8.246397e-17   18541082
  4.254516e-01   3.510711e-13   5.891095e-04   8.181309e-17   18713914
  4.274917e-01   3.501628e-13   5.886533e-04   8.131776e-17   18879742
  4.295318e-01   3.491367e-13   5.892187e-04   8.062286e-17   19077592
  4.315727e-01   3.480564e-13   5.891074e-04   8.001454e-17   19255474
  4.336133e-01   3.471316e-13   5.890497e-04   7.945064e-17   19436278
  4.356531e-01   3.458666e-13   5.886327e-04   7.884240e-17   19605994
  4.376936e-01   3.449119e-13   5.894559e-04   7.822411e-17   19817344
  4.397347e-01   3.440851e-13   5.889775e-04   7.766630e-17   19985702
  4.417750e-01   3.427750e-13   5.890630e-04   7.698231e-17   20175730
  4.438152e-01   3.420362e-13   5.887860e-04   7.656357e-17   20352682
  4.458557e-01   3.409846e-13   5.893597e-04   7.592437e-17   20559616
  4.478969e-01   3.400864e-13   5.891648e-04   7.535974e-17   20741518
  4.499369e-01   3.391813e-13   5.886230e-04   7.489202e-17   20912026
  4.519768e-01   3.381208e-13   5.891225e-04   7.423508e-17   21121018
  4.540176e-01   3.373679e-13   5.890883e-04   7.375344e-17   21310012
  4.560579e-01   3.365852e-13   5.889301e-04   7.330119e-17   21496154
  4.580989e-01   3.355018e-13   5.893557e-04   7.274105e-17   21705946
  4.601398e-01   3.344407e-13   5.889070e-04   7.217126e-17   21882562
  4.621802e-01   3.334727e-13   5.891458e-04   7.168686e-17   22085428
  4.642214e-01   3.325944e-13   5.893143e-04   7.117475e-17   22287106
  4.662615e-01   3.317661e-13   5.885500e-04   7.073082e-17   22455010
  4.683013e-01   3.309117e-13   5.890571e-04   7.021153e-17   22671694
  4.703421e-01   3.300322e-13   5.892012e-04   6.971122e-17   22874368
  4.723830e-01   3.293455e-13   5.891203e-04   6.926718e-17   23070146
  4.744235e-01   3.283899e-13   5.889653e-04   6.880224e-17   23264038
  4.764637e-01   3.275572e-13   5.889570e-04   6.831913e-17   23464210
  4.785045e-01   3.266738e-13   5.893101e-04   6.785666e-17   23679208
  4.805453e-01   3.257084e-13   5.889894e-04   6.735073e-17   23868658
  4.825856e-01   3.249903e-13   5.889440e-04   6.694745e-17   24070582
  4.846259e-01   3.240213e-13   5.890549e-04   6.646971e-17   24278842
  4.866664e-01   3.232912e-13   5.890268e-04   6.605037e-17   24482272
  4.887069e-01   3.224111e-13   5.890750e-04   6.560345e-17   24689510
  4.907474e-01   3.217796e-13   5.890195e-04   6.518778e-17   24894634
  4.927881e-01   3.208132e-13   5.891565e-04   6.474494e-17   25108474
  4.948289e-01   3.199666e-13   5.890919e-04   6.430687e-17   25313116
  4.968692e-01   3.190953e-13   5.889389e-04   6.388608e-17   25515970
  4.989095e-01   3.183447e-13   5.889848e-04   6.344037e-17   25727962
  5.009501e-01   3.176908e-13   5.892016e-04   6.306979e-17   25948954
  5.029911e-01   3.168558e-13   5.891242e-04   6.266523e-17   26157220
  5.050312e-01   3.161256e-13   5.887329e-04   6.229908e-17   26351546
  5.070713e-01   3.153644e-13   5.891599e-04   6.185438e-17   26585314
  5.091124e-01   3.145233e-13   5.891783e-04   6.145836e-17   26800630
  5.111529e-01   3.137910e-13   5.889142e-04   6.110336e-17   27003376
  5.131928e-01   3.129140e-13   5.887939e-04   6.067410e-17   27213202
  5.152333e-01   3.121998e-13   5.893371e-04   6.029243e-17   27455194
  5.172745e-01   3.114501e-13   5.891605e-04   5.994427e-17   27666070
  5.193150e-01   3.107995e-13   5.888642e-04   5.961499e-17   27870280
  5.213548e-01   3.099457e-13   5.888416e-04   5.922573e-17   28088090
  5.233952e-01   3.093085e-13   5.892064e-04   5.883670e-17   28326262
  5.254363e-01   3.086370e-13   5.891855e-04   5.850771e-17   28546906
  5.274771e-01   3.078265e-13   5.890514e-04   5.811231e-17   28762552
  5.295175e-01   3.070775e-13   5.889643e-04   5.773926e-17   28979734
  5.315579e-01   3.063103e-13   5.891116e-04   5.739492e-17   29211106
  5.335984e-01   3.055612e-13   5.890058e-04   5.703757e-17   29431738
  5.356386e-01   3.049474e-13   5.888449e-04   5.676703e-17   29648776
  5.376788e-01   3.042438e-13   5.891295e-04   5.638780e-17   29888654
  5.397198e-01   3.034311e-13   5.892792e-04   5.600475e-17   30123490
  5.417605e-01   3.027947e-13   5.889187e-04   5.570505e-17   30334570
  5.438008e-01   3.020510e-13   5.889866e-04   5.539425e-17   30566524
  5.458411e-01   3.013728e-13   5.890413e-04   5.506248e-17   30798370
  5.478823e-01   3.005870e-13   5.894562e-04   5.466691e-17   31052026
  5.499229e-01   2.998905e-13   5.886551e-04   5.438041e-17   31241782
  5.519630e-01   2.993529e-13   5.891853e-04   5.405567e-17   31502128
  5.540036e-01   2.986263e-13   5.889524e-04   5.377040e-17   31721474
  5.560439e-01   2.979419e-13   5.890206e-04   5.345889e-17   31960210
  5.580845e-01   2.971967e-13   5.890910e-04   5.310273e-17   32200582
  5.601251e-01   2.966559e-13   5.889897e-04   5.283381e-17   32429512
  5.621660e-01   2.960207e-13   5.893423e-04   5.251273e-17   32685226
  5.642068e-01   2.953604e-13   5.889439e-04   5.224816e-17   32900830
  5.662468e-01   2.943648e-13   5.888631e-04   5.186442e-17   33135682
  5.682871e-01   2.938893e-13   5.890598e-04   5.160020e-17   33385288
  5.703276e-01   2.932469e-13   5.890887e-04   5.133351e-17   33625706
  5.723684e-01   2.924738e-13   5.891781e-04   5.101465e-17   33873550
  5.744087e-01   2.919317e-13   5.887629e-04   5.073505e-17   34091770
