# power spectrum of pi_k * H (dimensionless)
# redshift z=5.835401
# k              Pk             sigma(k)       sigma(Pk)      count
  1.554082e-03   3.342675e-10   3.849967e-04   3.223314e-11   146
  3.315891e-03   3.496342e-10   5.645617e-04   1.046539e-11   1042
  5.255560e-03   3.089287e-10   5.631710e-04   6.202216e-12   2698
  7.226238e-03   2.719940e-10   5.714963e-04   3.775280e-12   5206
  9.236952e-03   2.408681e-10   5.879031e-04   2.674881e-12   8752
  1.128500e-02   2.151714e-10   5.950186e-04   1.882200e-12   13258
  1.332029e-02   1.928894e-10   5.812860e-04   1.448493e-12   18070
  1.533799e-02   1.706098e-10   5.833601e-04   1.100517e-12   24050
  1.738769e-02   1.499602e-10   5.989399e-04   8.402248e-13   31720
  1.943477e-02   1.331383e-10   5.849109e-04   6.752508e-13   38722
  2.146405e-02   1.165564e-10   5.862639e-04   5.410521e-13   47398
  2.349979e-02   1.031412e-10   5.882944e-04   4.314809e-13   56986
  2.554151e-02   9.145869e-11   5.907046e-04   3.547020e-13   67552
  2.758014e-02   8.188725e-11   5.872674e-04   2.929107e-13   78310
  2.961557e-02   7.153008e-11   5.882808e-04   2.395482e-13   90514
  3.164924e-02   6.409946e-11   5.857631e-04   2.021119e-13   102938
  3.368563e-02   5.630192e-11   5.901325e-04   1.645556e-13   117412
  3.572860e-02   5.098783e-11   5.900212e-04   1.404172e-13   132106
  3.776869e-02   4.568790e-11   5.879385e-04   1.193595e-13   147154
  3.980581e-02   4.092255e-11   5.881164e-04   1.013284e-13   163522
  4.184971e-02   3.712715e-11   5.917380e-04   8.716033e-14   181804
  4.388716e-02   3.377076e-11   5.852792e-04   7.647166e-14   197722
  4.592521e-02   3.091939e-11   5.913571e-04   6.606718e-14   218866
  4.796858e-02   2.877295e-11   5.883333e-04   5.904262e-14   237542
  5.000645e-02   2.652227e-11   5.882751e-04   5.224468e-14   258136
  5.204613e-02   2.469180e-11   5.892119e-04   4.677967e-14   280066
  5.408484e-02   2.299219e-11   5.879532e-04   4.197721e-14   301774
  5.612494e-02   2.160170e-11   5.897386e-04   3.779630e-14   326050
  5.816725e-02   2.040172e-11   5.892357e-04   3.460599e-14   349792
  6.020894e-02   1.925994e-11   5.898220e-04   3.157595e-14   375154
  6.224878e-02   1.816049e-11   5.878390e-04   2.888024e-14   399742
  6.428502e-02   1.725855e-11   5.877282e-04   2.645329e-14   426266
  6.632420e-02   1.626684e-11   5.892967e-04   2.415720e-14   454960
  6.836448e-02   1.538779e-11   5.887382e-04   2.217079e-14   482734
  7.040483e-02   1.455442e-11   5.895060e-04   2.034663e-14   512746
  7.244666e-02   1.373867e-11   5.892082e-04   1.865164e-14   542746
  7.448833e-02   1.284980e-11   5.895081e-04   1.697161e-14   573952
  7.652873e-02   1.208728e-11   5.886192e-04   1.563599e-14   604918
  7.856782e-02   1.139318e-11   5.887181e-04   1.429157e-14   637666
  8.060887e-02   1.064651e-11   5.897344e-04   1.296396e-14   672482
  8.265024e-02   1.000901e-11   5.887854e-04   1.191958e-14   705748
  8.468883e-02   9.341927e-12   5.884884e-04   1.083391e-14   740482
  8.673009e-02   8.726312e-12   5.901845e-04   9.876122e-15   779026
  8.877006e-02   8.146816e-12   5.875992e-04   9.041653e-15   812614
  9.081033e-02   7.634969e-12   5.902277e-04   8.271842e-15   854200
  9.285241e-02   7.163604e-12   5.887737e-04   7.597318e-15   890746
  9.489189e-02   6.725723e-12   5.888028e-04   6.963881e-15   930394
  9.693174e-02   6.334591e-12   5.888121e-04   6.443017e-15   970982
  9.897209e-02   5.971939e-12   5.890745e-04   5.939963e-15   1012600
  1.010137e-01   5.648052e-12   5.897237e-04   5.507852e-15   1055890
  1.030542e-01   5.358453e-12   5.884073e-04   5.141786e-15   1096630
  1.050933e-01   5.091231e-12   5.887890e-04   4.772127e-15   1141378
  1.071337e-01   4.860511e-12   5.890564e-04   4.469437e-15   1186552
  1.091740e-01   4.655672e-12   5.889981e-04   4.201210e-15   1231798
  1.112148e-01   4.466021e-12   5.893633e-04   3.959652e-15   1279234
  1.132559e-01   4.303238e-12   5.890093e-04   3.744737e-15   1325906
  1.152965e-01   4.152234e-12   5.891197e-04   3.547767e-15   1374352
  1.173364e-01   4.005011e-12   5.886007e-04   3.366482e-15   1421950
  1.193758e-01   3.884798e-12   5.890300e-04   3.205344e-15   1472962
  1.214157e-01   3.751380e-12   5.886064e-04   3.043250e-15   1522954
  1.234545e-01   3.624852e-12   5.884752e-04   2.894402e-15   1573804
  1.254965e-01   3.509692e-12   5.906693e-04   2.748282e-15   1632274
  1.275390e-01   3.391081e-12   5.886302e-04   2.617623e-15   1680226
  1.295769e-01   3.270541e-12   5.879889e-04   2.491567e-15   1732682
  1.316167e-01   3.154463e-12   5.894980e-04   2.357462e-15   1792204
  1.336589e-01   3.041130e-12   5.896575e-04   2.237328e-15   1848298
  1.356989e-01   2.921643e-12   5.883050e-04   2.125351e-15   1901050
  1.377383e-01   2.801731e-12   5.890297e-04   2.000451e-15   1961326
  1.397792e-01   2.682719e-12   5.892228e-04   1.892337e-15   2020312
  1.418209e-01   2.573909e-12   5.895741e-04   1.786519e-15   2080930
  1.438627e-01   2.459258e-12   5.893024e-04   1.682578e-15   2140390
  1.459026e-01   2.351885e-12   5.883405e-04   1.590556e-15   2198162
  1.479427e-01   2.244244e-12   5.893956e-04   1.492617e-15   2263864
  1.499842e-01   2.145115e-12   5.893769e-04   1.406962e-15   2326426
  1.520249e-01   2.048577e-12   5.889045e-04   1.325840e-15   2388550
  1.540650e-01   1.955199e-12   5.888570e-04   1.247874e-15   2453098
  1.561047e-01   1.871701e-12   5.886971e-04   1.180517e-15   2517592
  1.581449e-01   1.796385e-12   5.892905e-04   1.120497e-15   2586070
  1.601854e-01   1.720745e-12   5.889181e-04   1.057670e-15   2651842
  1.622257e-01   1.652816e-12   5.889579e-04   1.000300e-15   2720330
  1.642669e-01   1.591450e-12   5.894439e-04   9.545107e-16   2791156
  1.663078e-01   1.535679e-12   5.889934e-04   9.097440e-16   2858554
  1.683481e-01   1.483844e-12   5.890635e-04   8.675373e-16   2929594
  1.703877e-01   1.436781e-12   5.885431e-04   8.300150e-16   2998762
  1.724278e-01   1.392832e-12   5.891948e-04   7.955939e-16   3074188
  1.744675e-01   1.355522e-12   5.885376e-04   7.646177e-16   3143482
  1.765088e-01   1.317587e-12   5.900653e-04   7.338564e-16   3226186
  1.785498e-01   1.282367e-12   5.882615e-04   7.091007e-16   3291158
  1.805901e-01   1.250191e-12   5.897179e-04   6.811762e-16   3375112
  1.826317e-01   1.220099e-12   5.890290e-04   6.579751e-16   3447658
  1.846719e-01   1.188756e-12   5.889171e-04   6.341177e-16   3524626
  1.867120e-01   1.158774e-12   5.888543e-04   6.119205e-16   3602998
  1.887512e-01   1.129659e-12   5.883706e-04   5.897228e-16   3678592
  1.907908e-01   1.099747e-12   5.892546e-04   5.671129e-16   3764122
  1.928324e-01   1.070445e-12   5.894579e-04   5.466880e-16   3846598
  1.948727e-01   1.042117e-12   5.885077e-04   5.264602e-16   3922250
  1.969136e-01   1.011655e-12   5.896943e-04   5.062028e-16   4013032
  1.989552e-01   9.815769e-13   5.889700e-04   4.854923e-16   4091182
  2.009950e-01   9.517724e-13   5.887664e-04   4.668611e-16   4174282
  2.030353e-01   9.220084e-13   5.891040e-04   4.473631e-16   4261978
  2.050762e-01   8.917191e-13   5.892160e-04   4.280718e-16   4348624
  2.071163e-01   8.630512e-13   5.886637e-04   4.105849e-16   4431430
  2.091564e-01   8.336698e-13   5.892138e-04   3.928820e-16   4523290
  2.111972e-01   8.065177e-13   5.891043e-04   3.764691e-16   4611386
  2.132376e-01   7.798612e-13   5.888473e-04   3.606486e-16   4698814
  2.152782e-01   7.539446e-13   5.893426e-04   3.448355e-16   4792984
  2.173194e-01   7.292788e-13   5.892017e-04   3.304567e-16   4883194
  2.193596e-01   7.042162e-13   5.887755e-04   3.165736e-16   4971694
  2.214001e-01   6.817494e-13   5.893212e-04   3.034863e-16   5069434
  2.234405e-01   6.615851e-13   5.886957e-04   2.920057e-16   5157736
  2.254804e-01   6.414490e-13   5.891220e-04   2.809505e-16   5256202
  2.275212e-01   6.224222e-13   5.891252e-04   2.697971e-16   5351990
  2.295614e-01   6.049183e-13   5.887454e-04   2.597956e-16   5444914
  2.316024e-01   5.887515e-13   5.895775e-04   2.503468e-16   5550088
  2.336441e-01   5.735598e-13   5.892314e-04   2.418299e-16   5644774
  2.356844e-01   5.588220e-13   5.887291e-04   2.338191e-16   5739034
  2.377243e-01   5.456209e-13   5.889493e-04   2.264522e-16   5841154
  2.397648e-01   5.325007e-13   5.891188e-04   2.188718e-16   5943448
  2.418057e-01   5.204439e-13   5.891894e-04   2.122290e-16   6045670
  2.438457e-01   5.092823e-13   5.886738e-04   2.060318e-16   6142586
  2.458857e-01   4.976415e-13   5.890965e-04   1.994936e-16   6250738
  2.479269e-01   4.868611e-13   5.893339e-04   1.937623e-16   6357172
  2.499678e-01   4.759826e-13   5.890271e-04   1.877799e-16   6458506
  2.520084e-01   4.657558e-13   5.891472e-04   1.822805e-16   6566290
  2.540484e-01   4.548244e-13   5.886483e-04   1.767967e-16   6667414
  2.560881e-01   4.446051e-13   5.889729e-04   1.711976e-16   6778336
  2.581289e-01   4.348890e-13   5.893065e-04   1.661532e-16   6890218
  2.601690e-01   4.246082e-13   5.886464e-04   1.611507e-16   6992306
  2.622097e-01   4.143475e-13   5.895050e-04   1.560449e-16   7113454
  2.642508e-01   4.043826e-13   5.888931e-04   1.511593e-16   7216216
  2.662907e-01   3.942010e-13   5.889220e-04   1.460804e-16   7328218
  2.683311e-01   3.841018e-13   5.891504e-04   1.413826e-16   7444414
  2.703714e-01   3.740743e-13   5.887477e-04   1.367032e-16   7553290
  2.724122e-01   3.643831e-13   5.894442e-04   1.320416e-16   7676368
  2.744529e-01   3.552314e-13   5.888427e-04   1.280062e-16   7783150
  2.764932e-01   3.456006e-13   5.891771e-04   1.234775e-16   7904570
  2.785337e-01   3.363636e-13   5.888377e-04   1.194320e-16   8017570
  2.805747e-01   3.276552e-13   5.894749e-04   1.153834e-16   8143840
  2.826158e-01   3.193039e-13   5.889589e-04   1.116856e-16   8255134
  2.846555e-01   3.108529e-13   5.886996e-04   1.079958e-16   8371450
  2.866957e-01   3.030427e-13   5.891278e-04   1.045555e-16   8498578
  2.887371e-01   2.956179e-13   5.893995e-04   1.012113e-16   8623180
  2.907783e-01   2.884246e-13   5.891794e-04   9.812250e-17   8742034
  2.928185e-01   2.815249e-13   5.887409e-04   9.515240e-17   8859194
  2.948582e-01   2.748543e-13   5.888043e-04   9.225886e-17   8984386
  2.968984e-01   2.687541e-13   5.889953e-04   8.958106e-17   9111652
  2.989394e-01   2.627825e-13   5.894313e-04   8.696380e-17   9243322
  3.009801e-01   2.569241e-13   5.888434e-04   8.458798e-17   9361378
  3.030204e-01   2.515294e-13   5.890316e-04   8.225970e-17   9491998
  3.050606e-01   2.463710e-13   5.889315e-04   7.998315e-17   9618016
  3.071010e-01   2.413205e-13   5.891205e-04   7.787442e-17   9750178
  3.091413e-01   2.360707e-13   5.888404e-04   7.564942e-17   9875558
  3.111820e-01   2.317602e-13   5.893640e-04   7.378095e-17   10015834
  3.132223e-01   2.267252e-13   5.885801e-04   7.177795e-17   10133344
  3.152627e-01   2.222586e-13   5.895529e-04   6.988381e-17   10282522
  3.173040e-01   2.178334e-13   5.889812e-04   6.809075e-17   10406974
  3.193437e-01   2.131766e-13   5.886096e-04   6.625233e-17   10534378
  3.213841e-01   2.089616e-13   5.894405e-04   6.442456e-17   10684456
  3.234254e-01   2.048279e-13   5.890917e-04   6.279692e-17   10813894
  3.254654e-01   2.004763e-13   5.887488e-04   6.115403e-17   10944626
  3.275058e-01   1.962768e-13   5.892300e-04   5.950056e-17   11091802
  3.295466e-01   1.921383e-13   5.889694e-04   5.789927e-17   11224756
  3.315871e-01   1.878995e-13   5.891399e-04   5.624696e-17   11367730
  3.336279e-01   1.839535e-13   5.891097e-04   5.474042e-17   11507890
  3.356680e-01   1.800037e-13   5.886912e-04   5.327703e-17   11640658
  3.377084e-01   1.760795e-13   5.893412e-04   5.185106e-17   11795380
  3.397495e-01   1.721736e-13   5.891216e-04   5.037429e-17   11933434
  3.417900e-01   1.683782e-13   5.889963e-04   4.899918e-17   12074954
  3.438308e-01   1.648204e-13   5.892532e-04   4.767427e-17   12225142
  3.458709e-01   1.611869e-13   5.885745e-04   4.639002e-17   12356104
  3.479106e-01   1.576650e-13   5.891058e-04   4.508719e-17   12513442
  3.499516e-01   1.543628e-13   5.892873e-04   4.388925e-17   12664810
  3.519928e-01   1.509662e-13   5.891937e-04   4.269634e-17   12811246
  3.540334e-01   1.478056e-13   5.889181e-04   4.155354e-17   12953536
  3.560735e-01   1.447917e-13   5.890044e-04   4.053660e-17   13105042
  3.581140e-01   1.417077e-13   5.891192e-04   3.941102e-17   13258670
  3.601546e-01   1.389092e-13   5.890325e-04   3.845770e-17   13408738
  3.621953e-01   1.361075e-13   5.890899e-04   3.747683e-17   13562320
  3.642355e-01   1.334821e-13   5.888450e-04   3.659555e-17   13709062
  3.662757e-01   1.307795e-13   5.891202e-04   3.559612e-17   13870258
  3.683171e-01   1.282441e-13   5.894186e-04   3.474495e-17   14032714
  3.703575e-01   1.258306e-13   5.886241e-04   3.395142e-17   14169232
  3.723976e-01   1.234558e-13   5.891956e-04   3.310961e-17   14339422
  3.744381e-01   1.211063e-13   5.888919e-04   3.232568e-17   14489330
  3.764785e-01   1.187853e-13   5.891282e-04   3.151345e-17   14654458
  3.785190e-01   1.165976e-13   5.889293e-04   3.082168e-17   14808292
  3.805593e-01   1.144351e-13   5.890179e-04   3.006556e-17   14970130
  3.825997e-01   1.123616e-13   5.890254e-04   2.938759e-17   15131626
  3.846399e-01   1.102397e-13   5.888648e-04   2.869431e-17   15289198
  3.866807e-01   1.082131e-13   5.894136e-04   2.801059e-17   15466552
  3.887217e-01   1.061520e-13   5.889267e-04   2.735424e-17   15616714
  3.907617e-01   1.041683e-13   5.889009e-04   2.671933e-17   15780506
  3.928022e-01   1.021691e-13   5.891699e-04   2.607941e-17   15953542
  3.948433e-01   1.003087e-13   5.892495e-04   2.546044e-17   16121296
  3.968834e-01   9.839252e-14   5.886227e-04   2.489552e-17   16270762
  3.989235e-01   9.642774e-14   5.892919e-04   2.425449e-17   16457182
  4.009646e-01   9.466281e-14   5.891739e-04   2.369105e-17   16623562
  4.030052e-01   9.280661e-14   5.889160e-04   2.312645e-17   16785784
  4.050455e-01   9.109091e-14   5.890644e-04   2.259287e-17   16959370
  4.070861e-01   8.935814e-14   5.891235e-04   2.206412e-17   17132774
  4.091266e-01   8.757501e-14   5.889569e-04   2.153298e-17   17300602
  4.111672e-01   8.587186e-14   5.891834e-04   2.100950e-17   17480656
  4.132078e-01   8.428394e-14   5.889644e-04   2.052838e-17   17647558
  4.152481e-01   8.269758e-14   5.890172e-04   2.006613e-17   17823778
  4.172887e-01   8.122969e-14   5.890581e-04   1.960286e-17   18001594
  4.193290e-01   7.970611e-14   5.888841e-04   1.916249e-17   18172300
  4.213694e-01   7.816986e-14   5.891306e-04   1.871877e-17   18356770
  4.234105e-01   7.673483e-14   5.893313e-04   1.829896e-17   18541082
  4.254516e-01   7.533541e-14   5.891095e-04   1.786921e-17   18713914
  4.274917e-01   7.396955e-14   5.886533e-04   1.749229e-17   18879742
  4.295318e-01   7.262412e-14   5.892187e-04   1.707908e-17   19077592
  4.315727e-01   7.132730e-14   5.891074e-04   1.669739e-17   19255474
  4.336133e-01   7.003949e-14   5.890497e-04   1.632591e-17   19436278
  4.356531e-01   6.881350e-14   5.886327e-04   1.599884e-17   19605994
  4.376936e-01   6.762439e-14   5.894559e-04   1.564642e-17   19817344
  4.397347e-01   6.647765e-14   5.889775e-04   1.530804e-17   19985702
  4.417750e-01   6.523067e-14   5.890630e-04   1.496853e-17   20175730
  4.438152e-01   6.410173e-14   5.887860e-04   1.465535e-17   20352682
  4.458557e-01   6.302322e-14   5.893597e-04   1.435137e-17   20559616
  4.478969e-01   6.191095e-14   5.891648e-04   1.404484e-17   20741518
  4.499369e-01   6.085873e-14   5.886230e-04   1.374708e-17   20912026
  4.519768e-01   5.978746e-14   5.891225e-04   1.344751e-17   21121018
  4.540176e-01   5.876141e-14   5.890883e-04   1.317558e-17   21310012
  4.560579e-01   5.774231e-14   5.889301e-04   1.289892e-17   21496154
  4.580989e-01   5.675522e-14   5.893557e-04   1.262316e-17   21705946
  4.601398e-01   5.575405e-14   5.889070e-04   1.234841e-17   21882562
  4.621802e-01   5.481004e-14   5.891458e-04   1.209651e-17   22085428
  4.642214e-01   5.386254e-14   5.893143e-04   1.184246e-17   22287106
  4.662615e-01   5.290786e-14   5.885500e-04   1.159933e-17   22455010
  4.683013e-01   5.202713e-14   5.890571e-04   1.136168e-17   22671694
  4.703421e-01   5.109512e-14   5.892012e-04   1.111323e-17   22874368
  4.723830e-01   5.024392e-14   5.891203e-04   1.089386e-17   23070146
  4.744235e-01   4.936932e-14   5.889653e-04   1.066863e-17   23264038
  4.764637e-01   4.851324e-14   5.889570e-04   1.044160e-17   23464210
  4.785045e-01   4.768098e-14   5.893101e-04   1.021841e-17   23679208
  4.805453e-01   4.686234e-14   5.889894e-04   1.001387e-17   23868658
  4.825856e-01   4.603184e-14   5.889440e-04   9.805068e-18   24070582
  4.846259e-01   4.528012e-14   5.890549e-04   9.600568e-18   24278842
  4.866664e-01   4.448827e-14   5.890268e-04   9.408826e-18   24482272
  4.887069e-01   4.373911e-14   5.890750e-04   9.218946e-18   24689510
  4.907474e-01   4.301470e-14   5.890195e-04   9.036715e-18   24894634
  4.927881e-01   4.230787e-14   5.891565e-04   8.855168e-18   25108474
  4.948289e-01   4.157751e-14   5.890919e-04   8.672293e-18   25313116
  4.968692e-01   4.090185e-14   5.889389e-04   8.507719e-18   25515970
  4.989095e-01   4.022649e-14   5.889848e-04   8.338018e-18   25727962
  5.009501e-01   3.954548e-14   5.892016e-04   8.167242e-18   25948954
  5.029911e-01   3.890030e-14   5.891242e-04   8.010514e-18   26157220
  5.050312e-01   3.826806e-14   5.887329e-04   7.857471e-18   26351546
  5.070713e-01   3.765322e-14   5.891599e-04   7.707224e-18   26585314
  5.091124e-01   3.703556e-14   5.891783e-04   7.554067e-18   26800630
  5.111529e-01   3.642565e-14   5.889142e-04   7.411610e-18   27003376
  5.131928e-01   3.583377e-14   5.887939e-04   7.269149e-18   27213202
  5.152333e-01   3.523828e-14   5.893371e-04   7.120294e-18   27455194
  5.172745e-01   3.467241e-14   5.891605e-04   6.988213e-18   27666070
  5.193150e-01   3.414564e-14   5.888642e-04   6.862966e-18   27870280
  5.213548e-01   3.356335e-14   5.888416e-04   6.723374e-18   28088090
  5.233952e-01   3.302594e-14   5.892064e-04   6.593500e-18   28326262
  5.254363e-01   3.252258e-14   5.891855e-04   6.474913e-18   28546906
  5.274771e-01   3.198602e-14   5.890514e-04   6.354489e-18   28762552
  5.295175e-01   3.147019e-14   5.889643e-04   6.235132e-18   28979734
  5.315579e-01   3.094698e-14   5.891116e-04   6.110030e-18   29211106
  5.335984e-01   3.047045e-14   5.890058e-04   5.999356e-18   29431738
  5.356386e-01   2.999211e-14   5.888449e-04   5.887510e-18   29648776
  5.376788e-01   2.950520e-14   5.891295e-04   5.775816e-18   29888654
  5.397198e-01   2.903005e-14   5.892792e-04   5.667267e-18   30123490
  5.417605e-01   2.856514e-14   5.889187e-04   5.563134e-18   30334570
  5.438008e-01   2.812325e-14   5.889866e-04   5.463133e-18   30566524
  5.458411e-01   2.767605e-14   5.890413e-04   5.359861e-18   30798370
  5.478823e-01   2.722764e-14   5.894562e-04   5.259816e-18   31052026
  5.499229e-01   2.681026e-14   5.886551e-04   5.166996e-18   31241782
  5.519630e-01   2.638747e-14   5.891853e-04   5.069871e-18   31502128
  5.540036e-01   2.597340e-14   5.889524e-04   4.979465e-18   31721474
  5.560439e-01   2.555815e-14   5.890206e-04   4.887528e-18   31960210
  5.580845e-01   2.514910e-14   5.890910e-04   4.797410e-18   32200582
  5.601251e-01   2.476531e-14   5.889897e-04   4.712268e-18   32429512
  5.621660e-01   2.438942e-14   5.893423e-04   4.626722e-18   32685226
  5.642068e-01   2.400732e-14   5.889439e-04   4.547428e-18   32900830
  5.662468e-01   2.364627e-14   5.888631e-04   4.467403e-18   33135682
  5.682871e-01   2.326635e-14   5.890598e-04   4.383955e-18   33385288
  5.703276e-01   2.291458e-14   5.890887e-04   4.303802e-18   33625706
  5.723684e-01   2.256253e-14   5.891781e-04   4.227794e-18   33873550
  5.744087e-01   2.221075e-14   5.887629e-04   4.155212e-18   34091770
