# background statistics
# cycle   tau/boxsize    a             conformal H/H0  phi(k=0)       T00(k=0)
      0   4.736430e-02   2.499375e-04   5.211449e+01   0.000000e+00   3.119676e-01
      1   4.900790e-02   2.599810e-04   5.056185e+01   2.174329e-06   3.119676e-01
      2   5.070196e-02   2.704290e-04   4.906482e+01   4.099476e-06   3.119732e-01
      3   5.244771e-02   2.812980e-04   4.762119e+01   5.798826e-06   3.119782e-01
      4   5.424639e-02   2.926050e-04   4.622888e+01   7.293888e-06   3.119828e-01
      5   5.609923e-02   3.043676e-04   4.488586e+01   8.604426e-06   3.119868e-01
      6   5.800752e-02   3.166043e-04   4.359020e+01   9.748591e-06   3.119905e-01
      7   5.997252e-02   3.293341e-04   4.234002e+01   1.074304e-05   3.119939e-01
      8   6.199555e-02   3.425771e-04   4.113356e+01   1.160305e-05   3.119969e-01
      9   6.407791e-02   3.563540e-04   3.996907e+01   1.234263e-05   3.119996e-01
     10   6.622094e-02   3.706863e-04   3.884493e+01   1.297459e-05   3.120020e-01
     11   6.842599e-02   3.855964e-04   3.775954e+01   1.351068e-05   3.120042e-01
     12   7.069442e-02   4.011078e-04   3.671139e+01   1.396163e-05   3.120061e-01
     13   7.302762e-02   4.172448e-04   3.569901e+01   1.433722e-05   3.120079e-01
     14   7.542699e-02   4.340325e-04   3.472101e+01   1.464638e-05   3.120094e-01
     15   7.789394e-02   4.514973e-04   3.377604e+01   1.489724e-05   3.120108e-01
     16   8.042991e-02   4.696666e-04   3.286281e+01   1.509717e-05   3.120120e-01
     17   8.303635e-02   4.885689e-04   3.198008e+01   1.525288e-05   3.120131e-01
     18   8.571474e-02   5.082337e-04   3.112667e+01   1.537041e-05   3.120141e-01
     19   8.846656e-02   5.286919e-04   3.030144e+01   1.545525e-05   3.120149e-01
     20   9.129332e-02   5.499755e-04   2.950329e+01   1.551232e-05   3.120157e-01
     21   9.419655e-02   5.721179e-04   2.873117e+01   1.554604e-05   3.120163e-01
     22   9.717781e-02   5.951538e-04   2.798409e+01   1.556038e-05   3.120168e-01
     23   1.002387e-01   6.191194e-04   2.726106e+01   1.555886e-05   3.120173e-01
     24   1.033807e-01   6.440521e-04   2.656118e+01   1.554464e-05   3.120177e-01
     25   1.066055e-01   6.699911e-04   2.588355e+01   1.552050e-05   3.120180e-01
     26   1.099147e-01   6.969771e-04   2.522732e+01   1.548888e-05   3.120183e-01
     27   1.133101e-01   7.250523e-04   2.459168e+01   1.545193e-05   3.120185e-01
     28   1.167932e-01   7.542607e-04   2.397584e+01   1.541154e-05   3.120187e-01
     29   1.203657e-01   7.846483e-04   2.337905e+01   1.536931e-05   3.120188e-01
     30   1.240295e-01   8.162626e-04   2.280060e+01   1.532664e-05   3.120189e-01
     31   1.277862e-01   8.491532e-04   2.223980e+01   1.528470e-05   3.120189e-01
     32   1.316376e-01   8.833717e-04   2.169598e+01   1.524449e-05   3.120189e-01
     33   1.355856e-01   9.189717e-04   2.116852e+01   1.520684e-05   3.120189e-01
     34   1.396319e-01   9.560091e-04   2.065680e+01   1.517240e-05   3.120189e-01
     35   1.437785e-01   9.945420e-04   2.016025e+01   1.514171e-05   3.120188e-01
     36   1.480272e-01   1.034631e-03   1.967830e+01   1.511518e-05   3.120188e-01
     37   1.523799e-01   1.076338e-03   1.921043e+01   1.509311e-05   3.120187e-01
     38   1.568387e-01   1.119730e-03   1.875613e+01   1.507571e-05   3.120185e-01
     39   1.614055e-01   1.164874e-03   1.831489e+01   1.506308e-05   3.120184e-01
     40   1.660823e-01   1.211841e-03   1.788625e+01   1.505528e-05   3.120183e-01
     41   1.708712e-01   1.260705e-03   1.746976e+01   1.505230e-05   3.120181e-01
     42   1.757742e-01   1.311542e-03   1.706499e+01   1.505405e-05   3.120180e-01
     43   1.807935e-01   1.364433e-03   1.667153e+01   1.506042e-05   3.120178e-01
     44   1.859313e-01   1.419459e-03   1.628897e+01   1.507126e-05   3.120176e-01
     45   1.911898e-01   1.476708e-03   1.591693e+01   1.508638e-05   3.120174e-01
     46   1.965712e-01   1.536269e-03   1.555506e+01   1.510556e-05   3.120172e-01
     47   2.020778e-01   1.598235e-03   1.520300e+01   1.512857e-05   3.120170e-01
     48   2.077118e-01   1.662705e-03   1.486041e+01   1.515516e-05   3.120168e-01
     49   2.134758e-01   1.729778e-03   1.452697e+01   1.518507e-05   3.120165e-01
     50   2.193721e-01   1.799561e-03   1.420238e+01   1.521804e-05   3.120163e-01
# background statistics
# cycle   tau/boxsize    a             conformal H/H0  phi(k=0)       T00(k=0)
      0   6.427028e-01   9.900990e-03   5.696651e+00   0.000000e+00   3.120460e-01
      1   6.577388e-01   1.030088e-02   5.581859e+00   5.935108e-10   3.120460e-01
      2   6.730840e-01   1.071692e-02   5.469494e+00   1.100113e-09   3.120460e-01
      3   6.887445e-01   1.114977e-02   5.359500e+00   1.567859e-09   3.120460e-01
      4   7.047264e-01   1.160010e-02   5.251820e+00   2.002557e-09   3.120460e-01
      5   7.210360e-01   1.206863e-02   5.146399e+00   2.407926e-09   3.120460e-01
      6   7.376797e-01   1.255609e-02   5.043186e+00   2.787234e-09   3.120460e-01
      7   7.546640e-01   1.306324e-02   4.942128e+00   3.143425e-09   3.120460e-01
      8   7.719956e-01   1.359088e-02   4.843177e+00   3.479166e-09   3.120460e-01
      9   7.896813e-01   1.413984e-02   4.746283e+00   3.796880e-09   3.120460e-01
     10   8.077280e-01   1.471097e-02   4.651400e+00   4.098772e-09   3.120460e-01
     11   8.261429e-01   1.530518e-02   4.558482e+00   4.386853e-09   3.120460e-01
     12   8.449332e-01   1.592339e-02   4.467484e+00   4.662960e-09   3.120460e-01
     13   8.641061e-01   1.656658e-02   4.378363e+00   4.928769e-09   3.120460e-01
     14   8.836694e-01   1.723576e-02   4.291078e+00   5.185820e-09   3.120460e-01
     15   9.036306e-01   1.793197e-02   4.205587e+00   5.435524e-09   3.120460e-01
     16   9.239975e-01   1.865631e-02   4.121850e+00   5.679179e-09   3.120460e-01
     17   9.447782e-01   1.940990e-02   4.039829e+00   5.917980e-09   3.120460e-01
     18   9.659809e-01   2.019395e-02   3.959485e+00   6.153033e-09   3.120460e-01
     19   9.876137e-01   2.100967e-02   3.880783e+00   6.385362e-09   3.120460e-01
     20   1.009685e+00   2.185835e-02   3.803685e+00   6.615915e-09   3.120460e-01
     21   1.032204e+00   2.274131e-02   3.728158e+00   6.845579e-09   3.120460e-01
     22   1.055179e+00   2.365994e-02   3.654166e+00   7.075181e-09   3.120460e-01
     23   1.078620e+00   2.461569e-02   3.581678e+00   7.305497e-09   3.120460e-01
     24   1.102535e+00   2.561005e-02   3.510660e+00   7.537256e-09   3.120460e-01
     25   1.126933e+00   2.664458e-02   3.441081e+00   7.771150e-09   3.120460e-01
     26   1.151825e+00   2.772090e-02   3.372911e+00   8.007834e-09   3.120460e-01
     27   1.177220e+00   2.884071e-02   3.306118e+00   8.247931e-09   3.120460e-01
     28   1.203128e+00   3.000576e-02   3.240675e+00   8.492040e-09   3.120459e-01
     29   1.229559e+00   3.121788e-02   3.176552e+00   8.740734e-09   3.120459e-01
     30   1.256524e+00   3.247897e-02   3.113721e+00   8.994570e-09   3.120459e-01
     31   1.284033e+00   3.379101e-02   3.052156e+00   9.254084e-09   3.120459e-01
     32   1.312097e+00   3.515605e-02   2.991830e+00   9.519804e-09   3.120459e-01
     33   1.340726e+00   3.657624e-02   2.932717e+00   9.792243e-09   3.120459e-01
     34   1.369933e+00   3.805381e-02   2.874791e+00   1.007191e-08   3.120459e-01
     35   1.399728e+00   3.959107e-02   2.818029e+00   1.035929e-08   3.120459e-01
     36   1.430123e+00   4.119044e-02   2.762406e+00   1.065490e-08   3.120459e-01
     37   1.461131e+00   4.285443e-02   2.707898e+00   1.095923e-08   3.120459e-01
     38   1.492762e+00   4.458564e-02   2.654484e+00   1.127275e-08   3.120459e-01
     39   1.525030e+00   4.638680e-02   2.602139e+00   1.159599e-08   3.120459e-01
     40   1.557948e+00   4.826072e-02   2.550843e+00   1.192942e-08   3.120459e-01
     41   1.591527e+00   5.021035e-02   2.500574e+00   1.227355e-08   3.120459e-01
     42   1.625781e+00   5.223875e-02   2.451312e+00   1.262889e-08   3.120459e-01
     43   1.660723e+00   5.434910e-02   2.403035e+00   1.299595e-08   3.120459e-01
     44   1.696368e+00   5.654471e-02   2.355725e+00   1.337527e-08   3.120459e-01
     45   1.732728e+00   5.882903e-02   2.309363e+00   1.376736e-08   3.120458e-01
     46   1.769818e+00   6.120563e-02   2.263928e+00   1.417279e-08   3.120458e-01
     47   1.807653e+00   6.367826e-02   2.219403e+00   1.459209e-08   3.120458e-01
     48   1.846247e+00   6.625080e-02   2.175770e+00   1.502584e-08   3.120458e-01
     49   1.885615e+00   6.892726e-02   2.133012e+00   1.547463e-08   3.120458e-01
     50   1.925771e+00   7.171187e-02   2.091112e+00   1.593905e-08   3.120458e-01
     51   1.966733e+00   7.460899e-02   2.050053e+00   1.641971e-08   3.120458e-01
     52   2.008515e+00   7.762316e-02   2.009819e+00   1.691725e-08   3.120458e-01
     53   2.051133e+00   8.075912e-02   1.970394e+00   1.743230e-08   3.120458e-01
     54   2.094604e+00   8.402179e-02   1.931764e+00   1.796554e-08   3.120458e-01
     55   2.138944e+00   8.741629e-02   1.893913e+00   1.851765e-08   3.120457e-01
     56   2.184171e+00   9.094795e-02   1.856829e+00   1.908932e-08   3.120457e-01
     57   2.230300e+00   9.462232e-02   1.820495e+00   1.968127e-08   3.120457e-01
     58   2.277351e+00   9.844517e-02   1.784901e+00   2.029426e-08   3.120457e-01
     59   2.325339e+00   1.024225e-01   1.750031e+00   2.092902e-08   3.120457e-01
     60   2.374284e+00   1.065606e-01   1.715875e+00   2.158635e-08   3.120457e-01
     61   2.424203e+00   1.108658e-01   1.682421e+00   2.226705e-08   3.120457e-01
     62   2.475115e+00   1.153451e-01   1.649657e+00   2.297191e-08   3.120457e-01
     63   2.527038e+00   1.200054e-01   1.617571e+00   2.370179e-08   3.120456e-01
     64   2.579991e+00   1.248541e-01   1.586155e+00   2.445754e-08   3.120456e-01
     65   2.633992e+00   1.298988e-01   1.555398e+00   2.524001e-08   3.120456e-01
     66   2.689062e+00   1.351474e-01   1.525292e+00   2.605009e-08   3.120456e-01
     67   2.745218e+00   1.406081e-01   1.495826e+00   2.688868e-08   3.120456e-01
     68   2.802481e+00   1.462897e-01   1.466995e+00   2.775668e-08   3.120455e-01
     69   2.860869e+00   1.522009e-01   1.438790e+00   2.865498e-08   3.120455e-01
     70   2.920402e+00   1.583512e-01   1.411205e+00   2.958451e-08   3.120455e-01
     71   2.981098e+00   1.647502e-01   1.384234e+00   3.054616e-08   3.120455e-01
     72   3.042977e+00   1.714080e-01   1.357872e+00   3.154084e-08   3.120455e-01
     73   3.106057e+00   1.783352e-01   1.332116e+00   3.256940e-08   3.120454e-01
     74   3.170357e+00   1.855426e-01   1.306961e+00   3.363272e-08   3.120454e-01
     75   3.235895e+00   1.930416e-01   1.282405e+00   3.473159e-08   3.120454e-01
     76   3.302687e+00   2.008442e-01   1.258448e+00   3.586679e-08   3.120454e-01
     77   3.370751e+00   2.089627e-01   1.235089e+00   3.703903e-08   3.120453e-01
     78   3.440103e+00   2.174098e-01   1.212329e+00   3.824892e-08   3.120453e-01
     79   3.510756e+00   2.261992e-01   1.190171e+00   3.949700e-08   3.120453e-01
     80   3.582725e+00   2.353446e-01   1.168617e+00   4.078368e-08   3.120453e-01
     81   3.656021e+00   2.448607e-01   1.147673e+00   4.210923e-08   3.120452e-01
     82   3.730654e+00   2.547627e-01   1.127345e+00   4.347374e-08   3.120452e-01
     83   3.806634e+00   2.650663e-01   1.107642e+00   4.487710e-08   3.120452e-01
     84   3.883965e+00   2.757881e-01   1.088574e+00   4.631899e-08   3.120451e-01
     85   3.962650e+00   2.869453e-01   1.070152e+00   4.779876e-08   3.120451e-01
     86   4.042690e+00   2.985557e-01   1.052391e+00   4.931549e-08   3.120451e-01
     87   4.124081e+00   3.106382e-01   1.035306e+00   5.086785e-08   3.120450e-01
     88   4.206815e+00   3.232122e-01   1.018915e+00   5.245412e-08   3.120450e-01
     89   4.290880e+00   3.362981e-01   1.003240e+00   5.407206e-08   3.120450e-01
     90   4.376258e+00   3.499174e-01   9.883030e-01   5.571894e-08   3.120449e-01
     91   4.462927e+00   3.640921e-01   9.741300e-01   5.739140e-08   3.120449e-01
     92   4.550857e+00   3.788456e-01   9.607495e-01   5.908543e-08   3.120448e-01
     93   4.640011e+00   3.942022e-01   9.481927e-01   6.079628e-08   3.120448e-01
     94   4.730346e+00   4.101872e-01   9.364939e-01   6.251845e-08   3.120448e-01
     95   4.821809e+00   4.268271e-01   9.256900e-01   6.424559e-08   3.120447e-01
     96   4.914340e+00   4.441499e-01   9.158209e-01   6.597050e-08   3.120447e-01
     97   5.007868e+00   4.621844e-01   9.069296e-01   6.768505e-08   3.120446e-01
     98   5.102313e+00   4.809610e-01   8.990617e-01   6.938023e-08   3.120446e-01
     99   5.197585e+00   5.005116e-01   8.922655e-01   7.104614e-08   3.120445e-01
    100   5.293582e+00   5.208693e-01   8.865920e-01   7.267202e-08   3.120445e-01
    101   5.390194e+00   5.420689e-01   8.820942e-01   7.424635e-08   3.120445e-01
    102   5.487298e+00   5.641467e-01   8.788273e-01   7.575694e-08   3.120444e-01
    103   5.584763e+00   5.871405e-01   8.768483e-01   7.719111e-08   3.120444e-01
    104   5.682448e+00   6.110902e-01   8.762152e-01   7.853588e-08   3.120443e-01
    105   5.780204e+00   6.360370e-01   8.769871e-01   7.977818e-08   3.120443e-01
    106   5.877873e+00   6.620241e-01   8.792236e-01   8.090515e-08   3.120443e-01
    107   5.975294e+00   6.890967e-01   8.829841e-01   8.190436e-08   3.120442e-01
    108   6.072301e+00   7.173016e-01   8.883276e-01   8.276426e-08   3.120442e-01
    109   6.168723e+00   7.466879e-01   8.953123e-01   8.347428e-08   3.120441e-01
    110   6.264394e+00   7.773063e-01   9.039950e-01   8.402526e-08   3.120441e-01
    111   6.359146e+00   8.092100e-01   9.144313e-01   8.440978e-08   3.120441e-01
    112   6.452816e+00   8.424539e-01   9.266747e-01   8.462216e-08   3.120441e-01
    113   6.545248e+00   8.770954e-01   9.407769e-01   8.465882e-08   3.120440e-01
    114   6.636295e+00   9.131941e-01   9.567877e-01   8.451837e-08   3.120440e-01
    115   6.725819e+00   9.508117e-01   9.747551e-01   8.420152e-08   3.120440e-01
    116   6.813692e+00   9.900124e-01   9.947253e-01   8.371116e-08   3.120440e-01
    117   6.899802e+00   1.030863e+00   1.016743e+00   8.305221e-08   3.120440e-01
# background statistics
# cycle   tau/boxsize    a             conformal H/H0  phi(k=0)       T00(k=0)
      0   6.427028e-01   9.900990e-03   5.696651e+00   0.000000e+00   3.120460e-01
      1   6.577388e-01   1.030088e-02   5.581859e+00   6.040878e-10   3.120460e-01
      2   6.730840e-01   1.071692e-02   5.469494e+00   1.134728e-09   3.120460e-01
      3   6.887445e-01   1.114977e-02   5.359500e+00   1.627438e-09   3.120460e-01
      4   7.047264e-01   1.160010e-02   5.251820e+00   2.086746e-09   3.120460e-01
      5   7.210360e-01   1.206863e-02   5.146399e+00   2.516404e-09   3.120460e-01
      6   7.376797e-01   1.255609e-02   5.043186e+00   2.919795e-09   3.120460e-01
      7   7.546640e-01   1.306324e-02   4.942128e+00   3.299987e-09   3.120460e-01
      8   7.719956e-01   1.359088e-02   4.843177e+00   3.659767e-09   3.120460e-01
      9   7.896813e-01   1.413984e-02   4.746283e+00   4.001673e-09   3.120460e-01
     10   8.077280e-01   1.471097e-02   4.651400e+00   4.328020e-09   3.120460e-01
     11   8.261429e-01   1.530518e-02   4.558482e+00   4.640923e-09   3.120460e-01
     12   8.449332e-01   1.592339e-02   4.467484e+00   4.942318e-09   3.120460e-01
     13   8.641061e-01   1.656658e-02   4.378363e+00   5.233979e-09   3.120460e-01
     14   8.836694e-01   1.723576e-02   4.291078e+00   5.517535e-09   3.120460e-01
     15   9.036306e-01   1.793197e-02   4.205587e+00   5.794488e-09   3.120460e-01
     16   9.239975e-01   1.865631e-02   4.121850e+00   6.066221e-09   3.120460e-01
     17   9.447782e-01   1.940990e-02   4.039829e+00   6.334015e-09   3.120460e-01
     18   9.659809e-01   2.019395e-02   3.959485e+00   6.599057e-09   3.120460e-01
     19   9.876137e-01   2.100967e-02   3.880783e+00   6.862452e-09   3.120460e-01
     20   1.009685e+00   2.185835e-02   3.803685e+00   7.125231e-09   3.120460e-01
     21   1.032204e+00   2.274131e-02   3.728158e+00   7.388362e-09   3.120459e-01
     22   1.055179e+00   2.365994e-02   3.654166e+00   7.652750e-09   3.120459e-01
     23   1.078620e+00   2.461569e-02   3.581678e+00   7.919254e-09   3.120459e-01
     24   1.102535e+00   2.561005e-02   3.510660e+00   8.188687e-09   3.120459e-01
     25   1.126933e+00   2.664458e-02   3.441081e+00   8.461820e-09   3.120459e-01
     26   1.151825e+00   2.772090e-02   3.372911e+00   8.739394e-09   3.120459e-01
     27   1.177220e+00   2.884071e-02   3.306118e+00   9.022119e-09   3.120459e-01
     28   1.203128e+00   3.000576e-02   3.240675e+00   9.310681e-09   3.120459e-01
     29   1.229559e+00   3.121788e-02   3.176552e+00   9.605744e-09   3.120459e-01
     30   1.256524e+00   3.247897e-02   3.113721e+00   9.907955e-09   3.120459e-01
     31   1.284033e+00   3.379101e-02   3.052156e+00   1.021795e-08   3.120459e-01
     32   1.312097e+00   3.515605e-02   2.991830e+00   1.053635e-08   3.120459e-01
     33   1.340726e+00   3.657624e-02   2.932717e+00   1.086378e-08   3.120459e-01
     34   1.369933e+00   3.805381e-02   2.874791e+00   1.120083e-08   3.120459e-01
     35   1.399728e+00   3.959107e-02   2.818029e+00   1.154813e-08   3.120459e-01
     36   1.430123e+00   4.119044e-02   2.762406e+00   1.190628e-08   3.120459e-01
     37   1.461131e+00   4.285443e-02   2.707898e+00   1.227589e-08   3.120458e-01
     38   1.492762e+00   4.458564e-02   2.654484e+00   1.265757e-08   3.120458e-01
     39   1.525030e+00   4.638680e-02   2.602139e+00   1.305195e-08   3.120458e-01
     40   1.557948e+00   4.826072e-02   2.550843e+00   1.345965e-08   3.120458e-01
     41   1.591527e+00   5.021035e-02   2.500574e+00   1.388132e-08   3.120458e-01
     42   1.625781e+00   5.223875e-02   2.451312e+00   1.431760e-08   3.120458e-01
     43   1.660723e+00   5.434910e-02   2.403035e+00   1.476915e-08   3.120458e-01
     44   1.696368e+00   5.654471e-02   2.355725e+00   1.523665e-08   3.120458e-01
     45   1.732728e+00   5.882903e-02   2.309363e+00   1.572080e-08   3.120458e-01
     46   1.769818e+00   6.120563e-02   2.263928e+00   1.622231e-08   3.120458e-01
     47   1.807653e+00   6.367826e-02   2.219403e+00   1.674190e-08   3.120457e-01
     48   1.846247e+00   6.625080e-02   2.175770e+00   1.728033e-08   3.120457e-01
     49   1.885615e+00   6.892726e-02   2.133012e+00   1.783836e-08   3.120457e-01
     50   1.925771e+00   7.171187e-02   2.091112e+00   1.841680e-08   3.120457e-01
     51   1.966733e+00   7.460899e-02   2.050053e+00   1.901645e-08   3.120457e-01
     52   2.008515e+00   7.762316e-02   2.009819e+00   1.963816e-08   3.120457e-01
     53   2.051133e+00   8.075912e-02   1.970394e+00   2.028279e-08   3.120457e-01
     54   2.094604e+00   8.402179e-02   1.931764e+00   2.095125e-08   3.120456e-01
     55   2.138944e+00   8.741629e-02   1.893913e+00   2.164446e-08   3.120456e-01
     56   2.184171e+00   9.094795e-02   1.856829e+00   2.236336e-08   3.120456e-01
     57   2.230300e+00   9.462232e-02   1.820495e+00   2.310895e-08   3.120456e-01
     58   2.277351e+00   9.844517e-02   1.784901e+00   2.388223e-08   3.120456e-01
     59   2.325339e+00   1.024225e-01   1.750031e+00   2.468424e-08   3.120456e-01
     60   2.374284e+00   1.065606e-01   1.715875e+00   2.551606e-08   3.120455e-01
     61   2.424203e+00   1.108658e-01   1.682421e+00   2.637879e-08   3.120455e-01
     62   2.475115e+00   1.153451e-01   1.649657e+00   2.727358e-08   3.120455e-01
     63   2.527038e+00   1.200054e-01   1.617571e+00   2.820158e-08   3.120455e-01
     64   2.579991e+00   1.248541e-01   1.586155e+00   2.916399e-08   3.120454e-01
     65   2.633992e+00   1.298988e-01   1.555398e+00   3.016203e-08   3.120454e-01
     66   2.689062e+00   1.351474e-01   1.525292e+00   3.119697e-08   3.120454e-01
     67   2.745218e+00   1.406081e-01   1.495826e+00   3.227007e-08   3.120454e-01
