# power spectrum of pi_k * H (dimensionless)
# redshift z=-0.899027
# k              Pk             sigma(k)       sigma(Pk)      count
  1.256637e-01   7.596533e+00   0.000000e+00   4.257328e-04   6
  1.777153e-01   2.128109e+01   0.000000e+00   1.717692e-02   12
  2.176559e-01   3.872234e+01   2.384186e-09   6.649444e-02   8
  2.513274e-01   5.905133e+01   0.000000e+00   1.293577e-02   6
  2.809926e-01   8.173740e+01   4.495664e-09   9.391231e-02   24
  3.078120e-01   1.064183e+02   4.495664e-09   1.838601e-01   24
  3.554306e-01   1.607299e+02   0.000000e+00   5.231031e-01   12
  3.769911e-01   1.899624e+02   5.086263e-09   4.313685e-01   30
  3.973835e-01   2.204040e+02   0.000000e+00   3.841487e-01   24
  4.167794e-01   2.518377e+02   7.786718e-09   6.380530e-01   24
  4.353118e-01   2.841313e+02   4.768372e-09   1.992159e+00   8
  4.530869e-01   3.173921e+02   6.357829e-09   1.103642e+00   24
  4.701905e-01   3.513004e+02   0.000000e+00   1.014632e+00   48
  5.026548e-01   4.213870e+02   0.000000e+00   3.298846e-01   6
  5.181247e-01   4.568609e+02   6.357829e-09   1.373886e+00   48
  5.331460e-01   4.930842e+02   5.994218e-09   1.649574e+00   36
  5.477554e-01   5.293813e+02   6.357829e-09   3.095468e+00   24
  5.619852e-01   5.665777e+02   8.991328e-09   2.654160e+00   24
  5.758634e-01   6.037170e+02   0.000000e+00   2.307094e+00   48
  5.894150e-01   6.407280e+02   8.991328e-09   4.726043e+00   24
  6.156239e-01   7.164891e+02   8.991328e-09   5.129296e+00   24
  6.283185e-01   7.548519e+02   0.000000e+00   4.267872e+00   30
  6.407617e-01   7.930344e+02   0.000000e+00   2.990546e+00   72
  6.529678e-01   8.315866e+02   9.536743e-09   4.309419e+00   32
  6.767198e-01   9.073714e+02   0.000000e+00   4.412263e+00   72
  6.882885e-01   9.465543e+02   0.000000e+00   4.540326e+00   48
  7.108613e-01   1.021822e+03   0.000000e+00   1.373094e+01   12
  7.218830e-01   1.060170e+03   0.000000e+00   7.157907e+00   48
  7.327390e-01   1.097798e+03   0.000000e+00   8.116404e+00   48
  7.434365e-01   1.136435e+03   8.991328e-09   7.771451e+00   48
  7.539822e-01   1.173779e+03   1.017253e-08   1.124066e+01   30
  7.643825e-01   1.215647e+03   0.000000e+00   4.430463e+00   24
  7.746431e-01   1.250040e+03   1.895538e-08   7.177410e+00   72
  7.947671e-01   1.327033e+03   0.000000e+00   9.581779e+00   24
  8.046403e-01   1.361314e+03   0.000000e+00   7.538099e+00   96
  8.143939e-01   1.396438e+03   0.000000e+00   1.257765e+01   48
  8.240320e-01   1.431674e+03   1.557344e-08   2.054481e+01   24
  8.335587e-01   1.472252e+03   1.557344e-08   1.575523e+01   24
  8.429778e-01   1.505381e+03   0.000000e+00   1.177677e+01   72
  8.522927e-01   1.543631e+03   0.000000e+00   1.278536e+01   48
  8.706237e-01   1.607433e+03   9.536743e-09   4.900923e+01   8
  8.796459e-01   1.649041e+03   1.130281e-08   1.445550e+01   54
  8.885766e-01   1.682231e+03   0.000000e+00   1.316353e+01   84
  8.974184e-01   1.720260e+03   0.000000e+00   1.468076e+01   48
  9.061739e-01   1.750814e+03   1.271566e-08   2.561271e+01   24
  9.148456e-01   1.787037e+03   1.695421e-08   1.395236e+01   72
  9.234359e-01   1.820381e+03   0.000000e+00   1.291807e+01   96
  9.403811e-01   1.881220e+03   0.000000e+00   2.343386e+01   48
  9.487402e-01   1.915409e+03   0.000000e+00   2.347003e+01   48
  9.570263e-01   1.954916e+03   0.000000e+00   2.521652e+01   24
  9.652412e-01   1.981406e+03   0.000000e+00   1.901962e+01   72
  9.814649e-01   2.037666e+03   0.000000e+00   2.362950e+01   72
  9.894770e-01   2.073448e+03   0.000000e+00   1.857096e+01   96
  1.005310e+00   2.156450e+03   0.000000e+00   3.023302e+00   6
  1.013133e+00   2.166526e+03   0.000000e+00   1.918518e+01   96
  1.020897e+00   2.195853e+03   1.271566e-08   2.005217e+01   96
  1.028602e+00   2.221534e+03   0.000000e+00   4.447355e+01   24
  1.036249e+00   2.254525e+03   1.271566e-08   3.002828e+01   48
  1.043841e+00   2.287622e+03   0.000000e+00   1.904870e+01   96
  1.051378e+00   2.295107e+03   0.000000e+00   4.056202e+01   48
  1.066292e+00   2.370079e+03   1.198844e-08   3.413011e+01   36
  1.073671e+00   2.392372e+03   2.202416e-08   3.320420e+01   48
  1.081000e+00   2.417388e+03   2.491750e-08   2.257364e+01   120
  1.088280e+00   2.434640e+03   0.000000e+00   3.802530e+01   56
  1.095511e+00   2.455165e+03   1.271566e-08   6.336111e+01   24
  1.102695e+00   2.487762e+03   0.000000e+00   3.063638e+01   96
  1.109832e+00   2.509005e+03   0.000000e+00   4.495198e+01   48
  1.123970e+00   2.574984e+03   1.798266e-08   5.200165e+01   24
  1.130973e+00   2.588110e+03   0.000000e+00   3.099931e+01   102
  1.137933e+00   2.636333e+03   1.271566e-08   3.130774e+01   48
  1.144851e+00   2.639802e+03   0.000000e+00   3.684646e+01   72
  1.151727e+00   2.662559e+03   0.000000e+00   4.508845e+01   48
  1.158562e+00   2.695867e+03   0.000000e+00   3.905635e+01   48
  1.165357e+00   2.707996e+03   2.877225e-08   2.972040e+01   120
  1.178830e+00   2.718536e+03   1.798266e-08   9.290602e+01   24
  1.185509e+00   2.766409e+03   1.695421e-08   3.035119e+01   144
  1.192151e+00   2.784094e+03   2.034505e-08   3.516891e+01   120
  1.198755e+00   2.838185e+03   1.798266e-08   3.702401e+01   48
  1.211857e+00   2.841489e+03   1.798266e-08   5.889537e+01   48
  1.218355e+00   2.867174e+03   1.798266e-08   4.113217e+01   96
  1.235512e+00   2.905524e+03   3.015167e-03   5.471279e+01   72
  1.244007e+00   2.940720e+03   1.598458e-08   4.094541e+01   108
  1.250338e+00   2.944917e+03   0.000000e+00   5.647757e+01   72
  1.256637e+00   2.982072e+03   0.000000e+00   7.399845e+01   30
  1.262905e+00   2.992258e+03   0.000000e+00   3.496398e+01   168
  1.269141e+00   3.031210e+03   0.000000e+00   5.530301e+01   48
  1.281523e+00   3.050189e+03   0.000000e+00   5.189005e+01   72
  1.287670e+00   3.073843e+03   0.000000e+00   4.491590e+01   96
  1.293787e+00   3.076939e+03   3.390842e-08   5.531116e+01   72
  1.299875e+00   3.078863e+03   0.000000e+00   6.019811e+01   72
  1.310112e+00   3.118959e+03   2.784031e-03   4.841144e+01   104
  1.317972e+00   3.129162e+03   2.397687e-08   4.431297e+01   144
  1.335824e+00   3.184393e+03   4.021044e-08   5.023571e+01   96
  1.341721e+00   3.145588e+03   0.000000e+00   6.575394e+01   96
  1.351101e+00   3.186874e+03   2.864148e-03   5.591206e+01   120
  1.359261e+00   3.219533e+03   0.000000e+00   5.050678e+01   120
  1.365057e+00   3.234817e+03   0.000000e+00   6.472839e+01   72
  1.376577e+00   3.283382e+03   0.000000e+00   7.210978e+01   48
  1.382301e+00   3.238325e+03   3.130008e-08   7.665114e+01   78
  1.389623e+00   3.276512e+03   2.564571e-03   4.884726e+01   168
  1.404963e+00   3.308367e+03   2.936555e-08   5.306993e+01   144
  1.410572e+00   3.341971e+03   2.397687e-08   4.635193e+01   144
  1.426839e+00   3.327513e+03   1.476986e-03   5.510814e+01   156
  1.432787e+00   3.379038e+03   3.114687e-08   8.030951e+01   48
  1.438287e+00   3.368115e+03   2.034505e-08   5.815364e+01   120
  1.443766e+00   3.339007e+03   0.000000e+00   1.065454e+02   48
  1.453454e+00   3.362159e+03   2.260797e-03   5.074991e+01   216
  1.465478e+00   3.347616e+03   0.000000e+00   1.203946e+02   48
  1.470856e+00   3.398461e+03   1.798266e-08   7.172764e+01   96
  1.478502e+00   3.394515e+03   2.642094e-03   6.036887e+01   168
  1.486873e+00   3.403209e+03   1.798266e-08   1.092307e+02   48
  1.492174e+00   3.437816e+03   0.000000e+00   7.396073e+01   96
  1.497456e+00   3.352803e+03   0.000000e+00   1.399827e+02   48
  1.507964e+00   3.404541e+03   2.034505e-08   1.614949e+02   30
  1.513191e+00   3.456834e+03   0.000000e+00   7.528237e+01   96
  1.519439e+00   3.459143e+03   2.076451e-03   4.872669e+01   240
  1.527472e+00   3.538534e+03   2.240191e-03   1.104290e+02   32
  1.533921e+00   3.448450e+03   0.000000e+00   6.574529e+01   168
  1.539060e+00   3.452956e+03   0.000000e+00   7.516782e+01   120
  1.549286e+00   3.480114e+03   3.791077e-08   9.854875e+01   72
  1.554374e+00   3.449046e+03   1.695421e-08   7.613655e+01   144
  1.559446e+00   3.501431e+03   0.000000e+00   8.053156e+01   96
  1.564501e+00   3.433549e+03   0.000000e+00   1.008092e+02   96
  1.574562e+00   3.565086e+03   0.000000e+00   7.522115e+01   72
  1.579568e+00   3.461412e+03   2.543132e-08   9.242308e+01   96
  1.589534e+00   3.594998e+03   0.000000e+00   1.197435e+02   24
  1.594494e+00   3.471003e+03   0.000000e+00   6.914044e+01   192
  1.600334e+00   3.461502e+03   1.901066e-03   8.560218e+01   132
  1.609281e+00   3.491681e+03   0.000000e+00   9.538945e+01   96
  1.614180e+00   3.426327e+03   0.000000e+00   1.067532e+02   96
  1.619064e+00   3.420179e+03   2.034505e-08   1.018602e+02   120
  1.628788e+00   3.429163e+03   0.000000e+00   1.491268e+02   48
  1.636759e+00   3.535351e+03   2.303939e-03   5.919400e+01   222
  1.643266e+00   3.503104e+03   0.000000e+00   8.583386e+01   120
  1.648064e+00   3.387499e+03   3.114687e-08   2.579018e+02   24
  1.655050e+00   3.509095e+03   2.378000e-03   5.494094e+01   312
  1.670270e+00   3.514610e+03   2.229470e-03   1.220216e+02   72
  1.676563e+00   3.525275e+03   3.114687e-08   9.794339e+01   96
  1.683024e+00   3.478321e+03   2.270407e-03   7.752445e+01   192
  1.690632e+00   3.422878e+03   2.877225e-08   1.073004e+02   120
  1.695296e+00   3.488288e+03   0.000000e+00   8.584183e+01   144
  1.704585e+00   3.500935e+03   0.000000e+00   1.413505e+02   48
  1.711188e+00   3.455561e+03   2.282974e-03   6.039013e+01   336
  1.718425e+00   3.471396e+03   0.000000e+00   1.650338e+02   48
  1.727590e+00   3.451200e+03   0.000000e+00   8.185656e+01   192
  1.732155e+00   3.357253e+03   0.000000e+00   1.837400e+02   48
  1.745129e+00   3.384630e+03   1.584683e-03   1.720060e+02   56
  1.751580e+00   3.436179e+03   2.035272e-03   6.464500e+01   336
  1.759292e+00   3.455374e+03   2.260561e-08   1.573238e+02   54
  1.766010e+00   3.453526e+03   2.235459e-03   7.523404e+01   240
  1.779956e+00   3.449657e+03   2.140470e-03   7.722609e+01   228
  1.786017e+00   3.371982e+03   2.397687e-08   1.432227e+02   72
  1.791900e+00   3.437874e+03   2.076308e-03   9.073424e+01   144
  1.799230e+00   3.460486e+03   0.000000e+00   1.148126e+02   96
  1.803613e+00   3.389741e+03   2.877225e-08   8.138263e+01   240
  1.812348e+00   3.358113e+03   2.543132e-08   2.360074e+02   24
  1.817939e+00   3.378172e+03   1.961057e-03   6.921013e+01   336
  1.825371e+00   3.242143e+03   0.000000e+00   1.787493e+02   72
  1.832154e+00   3.392044e+03   2.133012e-03   9.693828e+01   168
  1.838302e+00   3.452753e+03   0.000000e+00   1.272503e+02   72
  1.846872e+00   3.390366e+03   0.000000e+00   1.270266e+02   96
  1.853509e+00   3.244501e+03   2.117011e-03   1.019312e+02   216
  1.859653e+00   3.312538e+03   0.000000e+00   1.377572e+02   96
  1.868125e+00   3.337010e+03   2.543132e-08   9.468972e+01   192
  1.872347e+00   3.344487e+03   2.397687e-08   9.731405e+01   144
  1.880762e+00   3.215623e+03   0.000000e+00   2.173839e+02   48
  1.886588e+00   3.293794e+03   2.041047e-03   8.394461e+01   246
  1.894505e+00   3.282830e+03   1.881878e-03   1.104124e+02   168
  1.901637e+00   3.267029e+03   4.983500e-08   1.274772e+02   120
  1.905784e+00   3.293094e+03   0.000000e+00   8.963842e+01   240
  1.914053e+00   3.377084e+03   0.000000e+00   2.129134e+02   24
  1.920640e+00   3.245757e+03   2.014384e-03   7.366495e+01   360
  1.928845e+00   3.360650e+03   2.005812e-03   1.087290e+02   120
  1.934568e+00   3.198928e+03   0.000000e+00   1.190877e+02   144
  1.938645e+00   3.276289e+03   0.000000e+00   1.455184e+02   96
  1.950825e+00   3.221196e+03   0.000000e+00   1.173743e+02   144
  1.954868e+00   3.237299e+03   0.000000e+00   1.176506e+02   132
  1.960551e+00   3.125457e+03   1.979707e-03   1.181471e+02   176
  1.968799e+00   3.144159e+03   1.999105e-03   8.481766e+01   312
  1.978954e+00   3.122574e+03   0.000000e+00   1.475008e+02   96
  1.982940e+00   3.072298e+03   0.000000e+00   1.384959e+02   144
  1.989055e+00   3.144458e+03   1.979053e-03   8.296588e+01   312
  1.998804e+00   2.997637e+03   0.000000e+00   2.306668e+02   48
  2.002750e+00   3.128774e+03   2.543132e-08   1.046005e+02   192
  2.010619e+00   3.537871e+03   0.000000e+00   1.204610e+02   6
  2.015848e+00   3.089518e+03   1.845802e-03   9.589883e+01   288
  2.024316e+00   3.113779e+03   1.950210e-03   1.021211e+02   192
  2.030159e+00   3.136825e+03   5.980883e-08   9.634806e+01   216
  2.034045e+00   3.085981e+03   0.000000e+00   1.847323e+02   72
  2.043725e+00   3.126064e+03   1.931689e-03   9.844909e+01   192
  2.050154e+00   3.014017e+03   1.434383e-03   9.601710e+01   288
  2.057204e+00   2.987036e+03   0.000000e+00   3.480379e+02   24
  2.062650e+00   2.969153e+03   1.889681e-03   7.633512e+01   456
  2.072499e+00   3.054750e+03   0.000000e+00   2.352507e+02   48
  2.078585e+00   2.994959e+03   1.861260e-03   9.928104e+01   240
  2.085579e+00   3.021392e+03   1.881013e-03   1.013334e+02   216
  2.091461e+00   2.994564e+03   0.000000e+00   1.706158e+02   72
  2.095233e+00   2.898298e+03   6.498988e-08   1.223756e+02   168
  2.105882e+00   2.897297e+03   1.398129e-03   1.014972e+02   288
  2.111855e+00   2.930533e+03   1.849965e-03   1.314483e+02   168
  2.121448e+00   2.851223e+03   0.000000e+00   1.307460e+02   192
  2.125166e+00   2.833072e+03   2.397687e-08   1.476743e+02   144
  2.132584e+00   2.975924e+03   2.397687e-08   2.233827e+02   36
  2.138874e+00   2.877200e+03   1.689411e-03   8.741065e+01   342
  2.144889e+00   2.866434e+03   1.734820e-03   1.283562e+02   144
  2.152621e+00   2.873076e+03   1.819392e-03   8.268657e+01   384
  2.162000e+00   2.834074e+03   4.983500e-08   1.486338e+02   120
  2.166643e+00   2.873946e+03   1.622368e-03   9.419038e+01   264
  2.172929e+00   2.823467e+03   8.042088e-08   1.232014e+02   192
  2.178848e+00   2.736682e+03   1.748412e-03   1.449315e+02   152
  2.183802e+00   2.797936e+03   4.795375e-08   1.555248e+02   144
  2.194222e+00   2.731943e+03   1.131589e-03   1.182232e+02   216
  2.199045e+00   2.798564e+03   1.512105e-03   9.106255e+01   312
  2.207535e+00   2.778450e+03   1.752500e-03   1.135155e+02   240
  2.212538e+00   2.691191e+03   2.543132e-08   1.771723e+02   96
  2.222033e+00   2.576406e+03   1.675517e-03   1.611590e+02   144
  2.227885e+00   2.700658e+03   1.646885e-03   8.226307e+01   456
  2.237379e+00   2.625757e+03   0.000000e+00   1.503141e+02   120
  2.240905e+00   2.663381e+03   0.000000e+00   1.454921e+02   144
  2.247941e+00   2.717767e+03   3.596531e-08   2.802863e+02   24
  2.252452e+00   2.602343e+03   1.583038e-03   9.705774e+01   336
  2.260253e+00   2.646879e+03   1.745876e-03   1.321094e+02   198
  2.267563e+00   2.624075e+03   1.697764e-03   8.757193e+01   432
  2.275867e+00   2.856040e+03   5.086263e-08   1.970728e+02   48
  2.280199e+00   2.657375e+03   1.498832e-03   8.586697e+01   384
  2.287976e+00   2.555571e+03   1.725473e-03   1.675694e+02   144
  2.295024e+00   2.644945e+03   1.713168e-03   1.047313e+02   264
  2.303454e+00   2.558597e+03   0.000000e+00   2.528092e+02   48
  2.309110e+00   2.560185e+03   1.628943e-03   1.059500e+02   276
  2.314567e+00   2.556388e+03   1.476593e-03   1.235281e+02   192
  2.321860e+00   2.521610e+03   1.659366e-03   7.744756e+01   552
  2.330715e+00   2.549776e+03   4.069010e-08   1.581109e+02   120
  2.335978e+00   2.406220e+03   1.679687e-03   1.433406e+02   216
  2.340855e+00   2.455463e+03   4.069010e-08   1.478869e+02   120
  2.349569e+00   2.491558e+03   1.654080e-03   9.057401e+01   408
  2.357660e+00   2.298636e+03   3.596531e-08   5.185312e+02   24
  2.362678e+00   2.445904e+03   1.670919e-03   9.712931e+01   384
  2.369685e+00   2.376895e+03   1.632547e-03   1.249324e+02   240
  2.375770e+00   2.476409e+03   1.644502e-03   1.271288e+02   168
  2.384301e+00   2.379686e+03   0.000000e+00   1.790741e+02   120
  2.389801e+00   2.422882e+03   1.714308e-03   1.014770e+02   350
  2.398744e+00   2.439594e+03   2.822081e-03   9.284407e+01   384
  2.404088e+00   2.436781e+03   0.000000e+00   1.467117e+02   144
  2.413921e+00   2.362244e+03   3.390842e-08   1.125334e+02   288
  2.419055e+00   2.375469e+03   1.615394e-03   1.025433e+02   336
  2.426039e+00   2.285518e+03   1.470682e-03   1.437596e+02   168
  2.430220e+00   2.377090e+03   9.639558e-08   9.714901e+01   336
  2.438868e+00   2.326665e+03   1.526480e-03   1.209134e+02   288
  2.444062e+00   2.364407e+03   1.438335e-03   9.877777e+01   264
  2.452858e+00   2.278474e+03   0.000000e+00   1.263649e+02   240
  2.456075e+00   2.293032e+03   0.000000e+00   1.994862e+02   96
  2.467620e+00   2.293760e+03   1.956039e-03   1.013718e+02   360
  2.473008e+00   2.313523e+03   1.441936e-03   1.583833e+02   168
  2.479816e+00   2.246351e+03   1.571860e-03   9.529895e+01   456
  2.488014e+00   2.219522e+03   4.521123e-08   1.809763e+02   108
  2.492626e+00   2.167309e+03   1.577159e-03   1.242443e+02   264
  2.498378e+00   2.204543e+03   1.407083e-03   1.217580e+02   264
  2.506256e+00   2.236831e+03   1.327788e-03   1.034102e+02   312
  2.516065e+00   2.211206e+03   9.866910e-04   1.131274e+02   270
  2.520176e+00   2.219741e+03   1.252729e-03   1.257339e+02   240
  2.527567e+00   2.217520e+03   1.549783e-03   9.924039e+01   384
  2.532054e+00   2.195975e+03   5.086263e-08   1.444385e+02   192
  2.540769e+00   2.209909e+03   1.243495e-03   1.185315e+02   240
  2.545825e+00   2.202945e+03   1.534673e-03   1.001013e+02   336
  2.555333e+00   2.173283e+03   1.544942e-03   9.040908e+01   480
  2.563047e+00   2.174257e+03   3.390842e-08   2.054875e+02   72
  2.567356e+00   2.186737e+03   1.506459e-03   1.434161e+02   240
  2.573216e+00   2.138328e+03   1.415865e-03   1.167080e+02   312
  2.579934e+00   2.076029e+03   1.530210e-03   1.302721e+02   240
  2.590086e+00   2.097026e+03   1.162564e-03   9.118209e+01   408
  2.594104e+00   2.106835e+03   1.064628e-03   1.058501e+02   336
  2.601958e+00   2.088495e+03   1.351816e-03   1.160713e+02   264
  2.605818e+00   2.003545e+03   0.000000e+00   1.761665e+02   144
  2.616557e+00   2.065759e+03   1.873697e-03   9.563142e+01   464
  2.622215e+00   2.062533e+03   1.489973e-03   1.556043e+02   168
  2.627801e+00   2.041428e+03   1.357041e-03   1.227264e+02   336
  2.637897e+00   2.065404e+03   1.425837e-03   1.036873e+02   414
  2.643588e+00   2.090829e+03   1.484211e-03   1.190960e+02   216
  2.650879e+00   2.163824e+03   3.596531e-08   1.329203e+02   96
  2.653856e+00   2.049635e+03   8.809666e-08   1.089460e+02   384
  2.664284e+00   2.032199e+03   1.481344e-03   8.852428e+01   492
  2.669873e+00   2.054572e+03   1.448627e-03   1.107120e+02   240
  2.676189e+00   2.007246e+03   1.470864e-03   1.048358e+02   312
  2.684913e+00   1.995389e+03   1.470380e-03   1.698537e+02   192
  2.690439e+00   2.001106e+03   1.424976e-03   9.353881e+01   504
  2.697770e+00   1.988848e+03   9.433586e-04   1.033563e+02   408
  2.703542e+00   1.925657e+03   2.890096e-03   1.518906e+02   168
  2.710765e+00   2.022586e+03   1.372821e-03   1.083046e+02   288
  2.716826e+00   1.950911e+03   1.432656e-03   1.096955e+02   288
  2.723035e+00   1.956438e+03   1.440903e-03   1.094944e+02   432
  2.732042e+00   1.948425e+03   1.362614e-03   1.359027e+02   216
  2.736854e+00   1.960933e+03   1.359739e-03   1.201549e+02   360
  2.745421e+00   1.936720e+03   1.327092e-03   1.162347e+02   312
  2.753154e+00   1.921185e+03   0.000000e+00   2.487128e+02   48
  2.757611e+00   1.922661e+03   1.422834e-03   9.778412e+01   432
  2.765594e+00   1.897656e+03   2.373302e-03   9.915007e+01   414
  2.770308e+00   1.928909e+03   5.421333e-08   1.180402e+02   312
  2.779102e+00   1.942690e+03   2.082441e-03   9.438746e+01   528
  2.785037e+00   1.946871e+03   1.093105e-03   1.296106e+02   264
  2.792167e+00   1.914363e+03   1.296122e-03   9.019294e+01   480
  2.801483e+00   1.884459e+03   0.000000e+00   1.176427e+02   288
  2.805506e+00   1.895267e+03   1.392643e-03   1.668382e+02   168
  2.812867e+00   1.913460e+03   2.204550e-03   9.228736e+01   504
