# power spectrum of zeta (dimensionless)
# redshift z=-0.896158
# k              Pk             sigma(k)       sigma(Pk)      count
  1.256637e-01   2.090288e-10   0.000000e+00   5.616944e-12   6
  1.777153e-01   5.240699e-10   0.000000e+00   6.022375e-12   12
  2.176559e-01   9.158006e-10   2.384186e-09   4.551867e-12   8
  2.513274e-01   1.353338e-09   0.000000e+00   2.995745e-11   6
  2.809926e-01   1.844005e-09   4.495664e-09   1.236491e-11   24
  3.078120e-01   2.373739e-09   4.495664e-09   1.227204e-11   24
  3.554306e-01   3.480037e-09   0.000000e+00   2.856402e-11   12
  3.769911e-01   4.092068e-09   5.086263e-09   2.021387e-11   30
  3.973835e-01   4.702428e-09   0.000000e+00   2.544664e-11   24
  4.167794e-01   5.311983e-09   7.786718e-09   2.881505e-11   24
  4.353118e-01   5.921752e-09   4.768372e-09   6.620104e-11   8
  4.530869e-01   6.538534e-09   6.357829e-09   3.725698e-11   24
  4.701905e-01   7.180643e-09   0.000000e+00   3.402729e-11   48
  5.026548e-01   8.513792e-09   0.000000e+00   1.325909e-11   6
  5.181247e-01   9.088493e-09   6.357829e-09   4.357727e-11   48
  5.331460e-01   9.723033e-09   5.994218e-09   4.475592e-11   36
  5.477554e-01   1.031875e-08   6.357829e-09   8.675172e-11   24
  5.619852e-01   1.096999e-08   8.991328e-09   7.358253e-11   24
  5.758634e-01   1.158020e-08   0.000000e+00   6.223148e-11   48
  5.894150e-01   1.209911e-08   8.991328e-09   1.329359e-10   24
  6.156239e-01   1.334108e-08   8.991328e-09   1.320833e-10   24
  6.283185e-01   1.398081e-08   0.000000e+00   1.032617e-10   30
  6.407617e-01   1.455761e-08   0.000000e+00   7.769824e-11   72
  6.529678e-01   1.512455e-08   9.536743e-09   1.125692e-10   32
  6.767198e-01   1.616478e-08   0.000000e+00   1.143281e-10   72
  6.882885e-01   1.678106e-08   0.000000e+00   1.165180e-10   48
  7.108613e-01   1.774677e-08   0.000000e+00   3.384299e-10   12
  7.218830e-01   1.823373e-08   0.000000e+00   1.756320e-10   48
  7.327390e-01   1.869978e-08   0.000000e+00   1.966170e-10   48
  7.434365e-01   1.925104e-08   8.991328e-09   1.916234e-10   48
  7.539822e-01   1.968583e-08   1.017253e-08   2.768724e-10   30
  7.643825e-01   2.046528e-08   0.000000e+00   1.355703e-10   24
  7.746431e-01   2.065403e-08   1.895538e-08   1.755902e-10   72
  7.947671e-01   2.167182e-08   0.000000e+00   2.480250e-10   24
  8.046403e-01   2.191705e-08   0.000000e+00   1.815274e-10   96
  8.143939e-01   2.223499e-08   0.000000e+00   3.004053e-10   48
  8.240320e-01   2.253510e-08   1.557344e-08   4.705306e-10   24
  8.335587e-01   2.313188e-08   1.557344e-08   3.726937e-10   24
  8.429778e-01   2.338866e-08   0.000000e+00   2.736301e-10   72
  8.522927e-01   2.388135e-08   0.000000e+00   3.045345e-10   48
  8.706237e-01   2.414814e-08   9.536743e-09   1.081237e-09   8
  8.796459e-01   2.484821e-08   1.130281e-08   3.329790e-10   54
  8.885766e-01   2.512278e-08   0.000000e+00   2.957635e-10   84
  8.974184e-01   2.560434e-08   0.000000e+00   3.388054e-10   48
  9.061739e-01   2.577062e-08   1.271566e-08   5.789654e-10   24
  9.148456e-01   2.614475e-08   1.695421e-08   3.200135e-10   72
  9.234359e-01   2.638749e-08   0.000000e+00   2.896266e-10   96
  9.403811e-01   2.671475e-08   0.000000e+00   5.148861e-10   48
  9.487402e-01   2.699621e-08   0.000000e+00   5.087822e-10   48
  9.570263e-01   2.756727e-08   0.000000e+00   5.724287e-10   24
  9.652412e-01   2.757845e-08   0.000000e+00   4.144689e-10   72
  9.814649e-01   2.776256e-08   0.000000e+00   4.978112e-10   72
  9.894770e-01   2.815650e-08   0.000000e+00   4.006960e-10   96
  1.005310e+00   2.929048e-08   0.000000e+00   2.255642e-10   6
  1.013133e+00   2.881146e-08   0.000000e+00   4.062326e-10   96
  1.020897e+00   2.897812e-08   1.271566e-08   4.198655e-10   96
  1.028602e+00   2.898049e-08   0.000000e+00   9.323963e-10   24
  1.036249e+00   2.930523e-08   1.271566e-08   6.178141e-10   48
  1.043841e+00   2.962544e-08   0.000000e+00   4.021257e-10   96
  1.051378e+00   2.904028e-08   0.000000e+00   8.143951e-10   48
  1.066292e+00   2.997190e-08   1.198844e-08   7.071750e-10   36
  1.073671e+00   2.996091e-08   2.202416e-08   6.821327e-10   48
  1.081000e+00   3.001397e-08   2.491750e-08   4.597843e-10   120
  1.088280e+00   2.985674e-08   0.000000e+00   7.640167e-10   56
  1.095511e+00   2.977079e-08   1.271566e-08   1.264115e-09   24
  1.102695e+00   3.004860e-08   0.000000e+00   6.035623e-10   96
  1.109832e+00   3.004511e-08   0.000000e+00   8.880057e-10   48
  1.123970e+00   3.073530e-08   1.798266e-08   1.048966e-09   24
  1.130973e+00   3.042845e-08   0.000000e+00   6.050934e-10   102
  1.137933e+00   3.118507e-08   1.271566e-08   6.252056e-10   48
  1.144851e+00   3.065600e-08   0.000000e+00   7.076854e-10   72
  1.151727e+00   3.074391e-08   0.000000e+00   8.812292e-10   48
  1.158562e+00   3.110284e-08   0.000000e+00   7.655132e-10   48
  1.165357e+00   3.083430e-08   2.877225e-08   5.696199e-10   120
  1.178830e+00   2.991641e-08   1.798266e-08   1.710278e-09   24
  1.185509e+00   3.076180e-08   1.695421e-08   5.772139e-10   144
  1.192151e+00   3.067816e-08   2.034505e-08   6.594766e-10   120
  1.198755e+00   3.160638e-08   1.798266e-08   7.172069e-10   48
  1.211857e+00   3.067322e-08   1.798266e-08   1.100619e-09   48
  1.218355e+00   3.080285e-08   1.798266e-08   7.604661e-10   96
  1.235512e+00   3.044608e-08   3.015167e-03   9.880040e-10   72
  1.244007e+00   3.075614e-08   1.598458e-08   7.481768e-10   108
  1.250338e+00   3.037714e-08   0.000000e+00   1.016456e-09   72
  1.256637e+00   3.093158e-08   0.000000e+00   1.363387e-09   30
  1.262905e+00   3.067510e-08   0.000000e+00   6.278981e-10   168
  1.269141e+00   3.120131e-08   0.000000e+00   9.973374e-10   48
  1.281523e+00   3.082918e-08   0.000000e+00   9.288287e-10   72
  1.287670e+00   3.092699e-08   0.000000e+00   7.877891e-10   96
  1.293787e+00   3.062588e-08   3.390842e-08   9.839757e-10   72
  1.299875e+00   3.030240e-08   0.000000e+00   1.062642e-09   72
  1.310112e+00   3.054254e-08   2.784031e-03   8.399021e-10   104
  1.317972e+00   3.026350e-08   2.397687e-08   7.615999e-10   144
  1.335824e+00   3.047076e-08   4.021044e-08   8.691737e-10   96
  1.341721e+00   2.923485e-08   0.000000e+00   1.112074e-09   96
  1.351101e+00   2.958321e-08   2.864148e-03   9.380548e-10   120
  1.359261e+00   2.990084e-08   0.000000e+00   8.608668e-10   120
  1.365057e+00   2.993830e-08   0.000000e+00   1.104183e-09   72
  1.376577e+00   3.029313e-08   0.000000e+00   1.217094e-09   48
  1.382301e+00   2.903517e-08   3.130008e-08   1.257746e-09   78
  1.389623e+00   2.943639e-08   2.564571e-03   7.949210e-10   168
  1.404963e+00   2.932157e-08   2.936555e-08   8.588720e-10   144
  1.410572e+00   2.978991e-08   2.397687e-08   7.599583e-10   144
  1.426839e+00   2.871875e-08   1.476986e-03   8.854252e-10   156
  1.432787e+00   2.952429e-08   3.114687e-08   1.315320e-09   48
  1.438287e+00   2.902112e-08   2.034505e-08   9.331313e-10   120
  1.443766e+00   2.819175e-08   0.000000e+00   1.691498e-09   48
  1.453454e+00   2.819655e-08   2.260797e-03   7.934730e-10   216
  1.465478e+00   2.742682e-08   0.000000e+00   1.852829e-09   48
  1.470856e+00   2.824233e-08   1.798266e-08   1.123876e-09   96
  1.478502e+00   2.780556e-08   2.642094e-03   9.259628e-10   168
  1.486873e+00   2.773184e-08   1.798266e-08   1.692397e-09   48
  1.492174e+00   2.808616e-08   0.000000e+00   1.131752e-09   96
  1.497456e+00   2.627453e-08   0.000000e+00   2.085699e-09   48
  1.507964e+00   2.692772e-08   2.034505e-08   2.411161e-09   30
  1.513191e+00   2.775791e-08   0.000000e+00   1.144894e-09   96
  1.519439e+00   2.755220e-08   2.076451e-03   7.353474e-10   240
  1.527472e+00   2.861946e-08   2.240191e-03   1.628272e-09   32
  1.533921e+00   2.687765e-08   0.000000e+00   9.688489e-10   168
  1.539060e+00   2.683957e-08   0.000000e+00   1.119903e-09   120
  1.549286e+00   2.691191e-08   3.791077e-08   1.439307e-09   72
  1.554374e+00   2.625778e-08   1.695421e-08   1.105398e-09   144
  1.559446e+00   2.701408e-08   0.000000e+00   1.176548e-09   96
  1.564501e+00   2.567700e-08   0.000000e+00   1.444858e-09   96
  1.574562e+00   2.762684e-08   0.000000e+00   1.104953e-09   72
  1.579568e+00   2.584057e-08   2.543132e-08   1.333081e-09   96
  1.589534e+00   2.768908e-08   0.000000e+00   1.755233e-09   24
  1.594494e+00   2.556701e-08   0.000000e+00   9.771463e-10   192
  1.600334e+00   2.529182e-08   1.901066e-03   1.203633e-09   132
  1.609281e+00   2.556021e-08   0.000000e+00   1.336508e-09   96
  1.614180e+00   2.451980e-08   0.000000e+00   1.494961e-09   96
  1.619064e+00   2.421967e-08   2.034505e-08   1.403182e-09   120
  1.628788e+00   2.431487e-08   0.000000e+00   2.076731e-09   48
  1.636759e+00   2.560736e-08   2.303939e-03   8.154992e-10   222
  1.643266e+00   2.506123e-08   0.000000e+00   1.180241e-09   120
  1.648064e+00   2.312446e-08   3.114687e-08   3.453111e-09   24
  1.655050e+00   2.485974e-08   2.378000e-03   7.455340e-10   312
  1.670270e+00   2.458672e-08   2.229470e-03   1.618100e-09   72
  1.676563e+00   2.468445e-08   3.114687e-08   1.311204e-09   96
  1.683024e+00   2.393474e-08   2.270407e-03   1.025932e-09   192
  1.690632e+00   2.310707e-08   2.877225e-08   1.409354e-09   120
  1.695296e+00   2.393678e-08   0.000000e+00   1.135485e-09   144
  1.704585e+00   2.395794e-08   0.000000e+00   1.874561e-09   48
  1.711188e+00   2.327028e-08   2.282974e-03   7.873569e-10   336
  1.718425e+00   2.330301e-08   0.000000e+00   2.120832e-09   48
  1.727590e+00   2.298264e-08   0.000000e+00   1.054430e-09   192
  1.732155e+00   2.185362e-08   0.000000e+00   2.353766e-09   48
  1.745129e+00   2.193838e-08   1.584683e-03   2.172332e-09   56
  1.751580e+00   2.248899e-08   2.035272e-03   8.158314e-10   336
  1.759292e+00   2.258223e-08   2.260561e-08   1.977796e-09   54
  1.766010e+00   2.254718e-08   2.235459e-03   9.357630e-10   240
  1.779956e+00   2.238086e-08   2.140470e-03   9.517835e-10   228
  1.786017e+00   2.155333e-08   2.397687e-08   1.780083e-09   72
  1.791900e+00   2.222814e-08   2.076308e-03   1.125080e-09   144
  1.799230e+00   2.225632e-08   0.000000e+00   1.406614e-09   96
  1.803613e+00   2.151227e-08   2.877225e-08   9.882351e-10   240
  1.812348e+00   2.128356e-08   2.543132e-08   2.894284e-09   24
  1.817939e+00   2.125445e-08   1.961057e-03   8.337990e-10   336
  1.825371e+00   1.986485e-08   0.000000e+00   2.131583e-09   72
  1.832154e+00   2.128959e-08   2.133012e-03   1.151564e-09   168
  1.838302e+00   2.181751e-08   0.000000e+00   1.529742e-09   72
  1.846872e+00   2.114146e-08   0.000000e+00   1.499815e-09   96
  1.853509e+00   1.972675e-08   2.117011e-03   1.194746e-09   216
  1.859653e+00   2.030830e-08   0.000000e+00   1.614752e-09   96
  1.868125e+00   2.049614e-08   2.543132e-08   1.102947e-09   192
  1.872347e+00   2.068619e-08   2.397687e-08   1.141218e-09   144
  1.880762e+00   1.935117e-08   0.000000e+00   2.508927e-09   48
  1.886588e+00   2.013748e-08   2.041047e-03   9.632423e-10   246
  1.894505e+00   1.984324e-08   1.881878e-03   1.253524e-09   168
  1.901637e+00   1.975307e-08   4.983500e-08   1.446374e-09   120
  1.905784e+00   1.988232e-08   0.000000e+00   1.011107e-09   240
  1.914053e+00   2.059021e-08   0.000000e+00   2.447004e-09   24
  1.920640e+00   1.946291e-08   2.014384e-03   8.266077e-10   360
  1.928845e+00   2.028617e-08   2.005812e-03   1.210196e-09   120
  1.934568e+00   1.905534e-08   0.000000e+00   1.329466e-09   144
  1.938645e+00   1.954104e-08   0.000000e+00   1.598483e-09   96
  1.950825e+00   1.907710e-08   0.000000e+00   1.293804e-09   144
  1.954868e+00   1.923084e-08   0.000000e+00   1.291184e-09   132
  1.960551e+00   1.841057e-08   1.979707e-03   1.291729e-09   176
  1.968799e+00   1.854082e-08   1.999105e-03   9.217863e-10   312
  1.978954e+00   1.838408e-08   0.000000e+00   1.604314e-09   96
  1.982940e+00   1.789437e-08   0.000000e+00   1.490362e-09   144
  1.989055e+00   1.844313e-08   1.979053e-03   8.894817e-10   312
  1.998804e+00   1.765983e-08   0.000000e+00   2.475545e-09   48
  2.002750e+00   1.822100e-08   2.543132e-08   1.117495e-09   192
  2.010619e+00   2.071644e-08   0.000000e+00   9.003511e-10   6
  2.015848e+00   1.787902e-08   1.845802e-03   1.006360e-09   288
  2.024316e+00   1.810560e-08   1.950210e-03   1.070835e-09   192
  2.030159e+00   1.813450e-08   5.980883e-08   1.003298e-09   216
  2.034045e+00   1.778725e-08   0.000000e+00   1.920722e-09   72
  2.043725e+00   1.805361e-08   1.931689e-03   1.016478e-09   192
  2.050154e+00   1.739870e-08   1.434383e-03   9.882944e-10   288
  2.057204e+00   1.698376e-08   0.000000e+00   3.591947e-09   24
  2.062650e+00   1.714583e-08   1.889681e-03   7.835614e-10   456
  2.072499e+00   1.738484e-08   0.000000e+00   2.372064e-09   48
  2.078585e+00   1.724327e-08   1.861260e-03   1.005359e-09   240
  2.085579e+00   1.716648e-08   1.881013e-03   1.025443e-09   216
  2.091461e+00   1.701920e-08   0.000000e+00   1.729260e-09   72
  2.095233e+00   1.674499e-08   6.498988e-08   1.236951e-09   168
  2.105882e+00   1.658481e-08   1.398129e-03   1.014562e-09   288
  2.111855e+00   1.660216e-08   1.849965e-03   1.306824e-09   168
  2.121448e+00   1.630962e-08   0.000000e+00   1.295891e-09   192
  2.125166e+00   1.617654e-08   2.397687e-08   1.465993e-09   144
  2.132584e+00   1.677387e-08   2.397687e-08   2.191662e-09   36
  2.138874e+00   1.637330e-08   1.689411e-03   8.548896e-10   342
  2.144889e+00   1.647024e-08   1.734820e-03   1.246553e-09   144
  2.152621e+00   1.627957e-08   1.819392e-03   8.004942e-10   384
  2.162000e+00   1.600339e-08   4.983500e-08   1.441211e-09   120
  2.166643e+00   1.613544e-08   1.622368e-03   9.050668e-10   264
  2.172929e+00   1.596242e-08   8.042088e-08   1.181600e-09   192
  2.178848e+00   1.573426e-08   1.748412e-03   1.396310e-09   152
  2.183802e+00   1.581450e-08   4.795375e-08   1.481776e-09   144
  2.194222e+00   1.561618e-08   1.131589e-03   1.127742e-09   216
  2.199045e+00   1.571043e-08   1.512105e-03   8.605715e-10   312
  2.207535e+00   1.548308e-08   1.752500e-03   1.070957e-09   240
  2.212538e+00   1.528197e-08   2.543132e-08   1.676406e-09   96
  2.222033e+00   1.524366e-08   1.675517e-03   1.527842e-09   144
  2.227885e+00   1.529210e-08   1.646885e-03   7.693649e-10   456
  2.237379e+00   1.519947e-08   0.000000e+00   1.405064e-09   120
  2.240905e+00   1.521215e-08   0.000000e+00   1.352057e-09   144
  2.247941e+00   1.506301e-08   3.596531e-08   2.573819e-09   24
  2.252452e+00   1.501524e-08   1.583038e-03   9.012303e-10   336
  2.260253e+00   1.490403e-08   1.745876e-03   1.216746e-09   198
  2.267563e+00   1.493957e-08   1.697764e-03   8.026985e-10   432
  2.275867e+00   1.481518e-08   5.086263e-08   1.735242e-09   48
  2.280199e+00   1.474069e-08   1.498832e-03   7.779583e-10   384
  2.287976e+00   1.471051e-08   1.725473e-03   1.529038e-09   144
  2.295024e+00   1.464276e-08   1.713168e-03   9.402119e-10   264
  2.303454e+00   1.429092e-08   0.000000e+00   2.273191e-09   48
  2.309110e+00   1.449701e-08   1.628943e-03   9.510931e-10   276
  2.314567e+00   1.445654e-08   1.476593e-03   1.106298e-09   192
  2.321860e+00   1.433996e-08   1.659366e-03   6.928106e-10   552
  2.330715e+00   1.439420e-08   4.069010e-08   1.403014e-09   120
  2.335978e+00   1.438354e-08   1.679687e-03   1.290637e-09   216
  2.340855e+00   1.419745e-08   4.069010e-08   1.308737e-09   120
  2.349569e+00   1.411866e-08   1.654080e-03   8.004319e-10   408
  2.357660e+00   1.477270e-08   3.596531e-08   4.687287e-09   24
  2.362678e+00   1.394471e-08   1.670919e-03   8.557033e-10   384
  2.369685e+00   1.402105e-08   1.632547e-03   1.101665e-09   240
  2.375770e+00   1.364848e-08   1.644502e-03   1.098374e-09   168
  2.384301e+00   1.393874e-08   0.000000e+00   1.571686e-09   120
  2.389801e+00   1.372779e-08   1.714308e-03   8.816197e-10   350
  2.398744e+00   1.362659e-08   2.822081e-03   8.012023e-10   384
  2.404088e+00   1.379513e-08   0.000000e+00   1.263803e-09   144
  2.413921e+00   1.360580e-08   3.390842e-08   9.705193e-10   288
  2.419055e+00   1.360959e-08   1.615394e-03   8.823876e-10   336
  2.426039e+00   1.354529e-08   1.470682e-03   1.233209e-09   168
  2.430220e+00   1.322169e-08   9.639558e-08   8.241339e-10   336
  2.438868e+00   1.352180e-08   1.526480e-03   1.041194e-09   288
  2.444062e+00   1.299149e-08   1.438335e-03   8.217875e-10   264
  2.452858e+00   1.348950e-08   0.000000e+00   1.080863e-09   240
  2.456075e+00   1.314964e-08   0.000000e+00   1.690641e-09   96
  2.467620e+00   1.303181e-08   1.956039e-03   8.530979e-10   360
  2.473008e+00   1.312879e-08   1.441936e-03   1.344120e-09   168
  2.479816e+00   1.319717e-08   1.571860e-03   8.068867e-10   456
  2.488014e+00   1.292698e-08   4.521123e-08   1.508493e-09   108
  2.492626e+00   1.350744e-08   1.577159e-03   1.056245e-09   264
  2.498378e+00   1.310184e-08   1.407083e-03   1.021626e-09   264
  2.506256e+00   1.262496e-08   1.327788e-03   8.542974e-10   312
  2.516065e+00   1.288378e-08   9.866910e-04   9.404045e-10   270
  2.520176e+00   1.273411e-08   1.252729e-03   1.040116e-09   240
  2.527567e+00   1.272356e-08   1.549783e-03   8.214745e-10   384
  2.532054e+00   1.252607e-08   5.086263e-08   1.187257e-09   192
  2.540769e+00   1.239907e-08   1.243495e-03   9.699344e-10   240
  2.545825e+00   1.240107e-08   1.534673e-03   8.222275e-10   336
  2.555333e+00   1.241428e-08   1.544942e-03   7.400709e-10   480
  2.563047e+00   1.225263e-08   3.390842e-08   1.669857e-09   72
  2.567356e+00   1.283219e-08   1.506459e-03   1.191760e-09   240
  2.573216e+00   1.250378e-08   1.415865e-03   9.545774e-10   312
  2.579934e+00   1.268000e-08   1.530210e-03   1.065160e-09   240
  2.590086e+00   1.214906e-08   1.162564e-03   7.324252e-10   408
  2.594104e+00   1.219680e-08   1.064628e-03   8.556250e-10   336
  2.601958e+00   1.219811e-08   1.351816e-03   9.407793e-10   264
  2.605818e+00   1.304403e-08   0.000000e+00   1.442051e-09   144
  2.616557e+00   1.237395e-08   1.873697e-03   7.748979e-10   464
  2.622215e+00   1.199167e-08   1.489973e-03   1.238486e-09   168
  2.627801e+00   1.280124e-08   1.357041e-03   9.987210e-10   336
  2.637897e+00   1.208080e-08   1.425837e-03   8.315825e-10   414
  2.643588e+00   1.147042e-08   1.484211e-03   9.435555e-10   216
  2.650879e+00   9.935353e-09   3.596531e-08   9.392962e-10   96
  2.653856e+00   1.224561e-08   8.809666e-08   8.775286e-10   384
  2.664284e+00   1.170426e-08   1.481344e-03   7.003197e-10   492
  2.669873e+00   1.091350e-08   1.448627e-03   8.459303e-10   240
  2.676189e+00   1.148111e-08   1.470864e-03   8.166049e-10   312
  2.684913e+00   1.322477e-08   1.470380e-03   1.389744e-09   192
  2.690439e+00   1.198531e-08   1.424976e-03   7.435936e-10   504
  2.697770e+00   1.178264e-08   9.433586e-04   8.133770e-10   408
  2.703542e+00   1.202666e-08   2.890096e-03   1.197781e-09   168
  2.710765e+00   1.070846e-08   1.372821e-03   8.390011e-10   288
  2.716826e+00   1.132086e-08   1.432656e-03   8.517367e-10   288
  2.723035e+00   1.231983e-08   1.440903e-03   8.639657e-10   432
  2.732042e+00   1.115708e-08   1.362614e-03   1.039098e-09   216
  2.736854e+00   1.206555e-08   1.359739e-03   9.434563e-10   360
  2.745421e+00   1.141520e-08   1.327092e-03   8.987133e-10   312
  2.753154e+00   9.721364e-09   0.000000e+00   1.735018e-09   48
  2.757611e+00   1.146426e-08   1.422834e-03   7.608009e-10   432
  2.765594e+00   1.167417e-08   2.373302e-03   7.717945e-10   414
  2.770308e+00   1.150695e-08   5.421333e-08   9.194193e-10   312
  2.779102e+00   1.159050e-08   2.082441e-03   7.354461e-10   528
  2.785037e+00   1.085350e-08   1.093105e-03   9.882042e-10   264
  2.792167e+00   1.102526e-08   1.296122e-03   6.954720e-10   480
  2.801483e+00   1.110212e-08   0.000000e+00   8.945675e-10   288
  2.805506e+00   1.113243e-08   1.392643e-03   1.263939e-09   168
  2.812867e+00   1.095024e-08   2.204550e-03   7.095747e-10   504
