# power spectrum of delta
# redshift z=9.863284
# k              Pk             sigma(k)       sigma(Pk)      count
  5.011399e-03   6.824121e-07   7.667927e-04   1.328064e-07   18
  1.037418e-02   1.900437e-05   1.725047e-03   2.195575e-06   128
  1.616528e-02   8.431894e-05   1.646572e-03   4.760988e-06   314
  2.269071e-02   2.020572e-04   1.954354e-03   7.832457e-06   728
  2.897169e-02   3.863423e-04   1.717946e-03   1.297444e-05   1016
  3.518826e-02   5.364745e-04   1.880676e-03   1.324430e-05   1682
  4.169479e-02   8.038847e-04   1.831736e-03   1.690685e-05   2300
  4.790974e-02   1.021699e-03   1.770731e-03   1.919352e-05   2906
  5.429022e-02   1.372959e-03   1.892687e-03   2.260965e-05   4040
  6.068098e-02   1.769683e-03   1.775551e-03   2.669610e-05   4712
  6.698900e-02   2.252628e-03   1.857705e-03   2.903184e-05   6002
  7.346135e-02   2.661148e-03   1.857594e-03   3.165302e-05   7256
  7.977379e-02   3.153890e-03   1.772571e-03   3.565260e-05   8120
  8.609019e-02   3.448989e-03   1.864951e-03   3.459724e-05   9950
  9.253636e-02   3.793497e-03   1.853578e-03   3.508648e-05   11384
  9.885187e-02   4.033703e-03   1.809244e-03   3.628007e-05   12666
  1.052712e-01   4.441822e-03   1.889168e-03   3.564563e-05   15104
  1.117654e-01   4.896260e-03   1.850532e-03   3.846088e-05   16616
  1.180754e-01   5.563378e-03   1.799489e-03   4.174571e-05   18026
  1.244216e-01   6.100077e-03   1.853405e-03   4.181141e-05   20696
  1.308065e-01   6.618502e-03   1.827918e-03   4.452930e-05   22436
  1.371558e-01   7.256791e-03   1.845873e-03   4.623624e-05   24962
  1.435394e-01   7.603230e-03   1.831283e-03   4.557244e-05   27176
  1.499133e-01   7.831835e-03   1.847268e-03   4.556584e-05   29810
  1.562775e-01   8.146155e-03   1.828450e-03   4.596524e-05   32120
  1.626776e-01   8.442942e-03   1.865216e-03   4.499779e-05   35432
  1.690383e-01   8.975812e-03   1.814577e-03   4.645337e-05   37238
  1.754019e-01   9.490842e-03   1.856016e-03   4.689098e-05   41072
  1.817869e-01   9.989623e-03   1.834293e-03   4.841595e-05   43472
  1.881565e-01   1.069642e-02   1.848176e-03   4.946472e-05   47042
  1.945298e-01   1.138273e-02   1.829223e-03   5.170950e-05   49712
  2.008693e-01   1.183087e-02   1.840592e-03   5.164597e-05   53226
  2.072637e-01   1.195744e-02   1.853753e-03   4.983978e-05   57320
  2.136558e-01   1.238035e-02   1.831629e-03   5.071858e-05   60092
  2.200056e-01   1.274694e-02   1.839426e-03   5.057956e-05   63914
  2.263950e-01   1.302228e-02   1.849752e-03   4.964855e-05   68192
  2.327751e-01   1.345533e-02   1.833934e-03   5.036978e-05   71336
  2.391397e-01   1.389399e-02   1.845607e-03   5.046430e-05   75818
  2.455297e-01   1.442354e-02   1.844019e-03   5.127361e-05   79880
  2.518964e-01   1.500326e-02   1.834462e-03   5.177165e-05   83642
  2.582661e-01   1.563460e-02   1.840779e-03   5.262408e-05   88316
  2.646730e-01   1.601143e-02   1.859422e-03   5.256775e-05   93488
  2.710484e-01   1.634932e-02   1.827184e-03   5.274991e-05   96458
  2.773871e-01   1.668456e-02   1.829038e-03   5.304075e-05   101264
  2.837816e-01   1.694452e-02   1.862873e-03   5.157352e-05   107696
  2.901819e-01   1.721946e-02   1.837217e-03   5.176984e-05   111170
  2.965233e-01   1.780801e-02   1.822285e-03   5.255688e-05   115232
  3.028941e-01   1.818320e-02   1.855375e-03   5.196232e-05   122310
  3.093019e-01   1.856810e-02   1.843350e-03   5.217649e-05   126944
  3.156739e-01   1.912278e-02   1.828600e-03   5.288059e-05   131192
  3.220432e-01   1.954247e-02   1.844535e-03   5.299492e-05   137618
  3.284234e-01   2.000770e-02   1.836674e-03   5.292979e-05   142448
  3.347979e-01   2.023453e-02   1.844704e-03   5.242139e-05   148520
  3.411627e-01   2.059042e-02   1.831436e-03   5.296129e-05   153254
  3.475446e-01   2.101224e-02   1.852010e-03   5.251819e-05   160760
  3.539284e-01   2.112310e-02   1.835751e-03   5.171122e-05   165290
  3.603019e-01   2.169825e-02   1.840148e-03   5.238048e-05   171992
  3.666828e-01   2.202435e-02   1.840217e-03   5.251378e-05   177800
  3.730569e-01   2.246203e-02   1.843032e-03   5.239100e-05   184322
  3.794439e-01   2.285242e-02   1.841595e-03   5.252235e-05   190832
  3.858239e-01   2.316982e-02   1.839260e-03   5.261340e-05   196772
  3.921872e-01   2.370906e-02   1.836453e-03   5.276883e-05   202970
  3.985536e-01   2.407749e-02   1.839266e-03   5.273027e-05   210056
  4.049173e-01   2.443302e-02   1.832832e-03   5.269146e-05   216210
  4.112896e-01   2.468592e-02   1.841640e-03   5.206744e-05   224168
  4.176700e-01   2.484405e-02   1.840761e-03   5.197927e-05   230792
  4.240565e-01   2.542740e-02   1.846256e-03   5.223080e-05   238778
  4.304312e-01   2.555714e-02   1.831772e-03   5.163217e-05   243956
  4.367939e-01   2.605480e-02   1.845141e-03   5.184398e-05   252680
  4.431746e-01   2.642962e-02   1.842020e-03   5.197270e-05   260066
  4.495713e-01   2.676511e-02   1.849294e-03   5.166416e-05   268712
  4.559494e-01   2.712912e-02   1.834336e-03   5.181782e-05   274034
  4.623270e-01   2.728191e-02   1.847366e-03   5.128334e-05   283904
  4.687088e-01   2.765467e-02   1.837425e-03   5.143977e-05   290048
  4.750707e-01   2.789057e-02   1.836659e-03   5.133893e-05   297950
  4.814434e-01   2.829328e-02   1.842026e-03   5.137653e-05   306968
  4.878269e-01   2.883517e-02   1.843240e-03   5.150614e-05   315320
  4.942006e-01   2.884058e-02   1.835899e-03   5.086367e-05   322346
  5.005701e-01   2.925476e-02   1.842589e-03   5.072860e-05   331664
  5.069538e-01   2.950698e-02   1.844896e-03   5.049297e-05   340818
  5.133346e-01   3.000322e-02   1.837322e-03   5.090382e-05   348164
  5.197083e-01   3.028418e-02   1.843548e-03   5.071625e-05   357584
  5.260929e-01   3.060823e-02   1.846059e-03   5.042827e-05   367106
  5.324635e-01   3.075649e-02   1.832285e-03   5.019116e-05   373376
  5.388350e-01   3.103552e-02   1.848023e-03   4.990322e-05   385376
  5.452233e-01   3.139692e-02   1.842356e-03   4.989226e-05   393650
  5.516038e-01   3.161884e-02   1.840588e-03   4.984064e-05   402704
  5.579656e-01   3.186098e-02   1.830970e-03   4.969592e-05   409910
  5.643320e-01   3.226554e-02   1.843407e-03   4.972559e-05   422024
  5.707212e-01   3.241132e-02   1.846526e-03   4.931339e-05   432176
  5.771022e-01   3.277250e-02   1.837404e-03   4.946558e-05   440066
  5.834769e-01   3.301851e-02   1.841263e-03   4.923124e-05   450680
  5.898365e-01   3.334225e-02   1.831084e-03   4.925281e-05   457856
  5.962115e-01   3.364331e-02   1.848347e-03   4.894419e-05   472538
  6.026013e-01   3.402254e-02   1.839689e-03   4.906294e-05   480140
  6.089752e-01   3.414643e-02   1.841279e-03   4.886148e-05   490842
  6.153517e-01   3.453524e-02   1.838382e-03   4.884373e-05   500744
  6.217295e-01   3.467894e-02   1.842392e-03   4.843920e-05   511856
  6.281145e-01   3.502704e-02   1.844734e-03   4.842594e-05   523202
  6.344991e-01   3.532417e-02   1.840396e-03   4.858493e-05   532688
  6.408638e-01   3.556793e-02   1.834541e-03   4.843144e-05   541520
  6.472341e-01   3.582372e-02   1.842653e-03   4.824216e-05   555110
  6.536136e-01   3.600529e-02   1.839126e-03   4.772711e-05   564944
  6.599884e-01   3.618494e-02   1.839832e-03   4.786264e-05   576434
  6.663740e-01   3.647065e-02   1.844405e-03   4.764251e-05   588848
  6.727501e-01   3.671417e-02   1.838623e-03   4.756743e-05   597704
  6.791236e-01   3.704940e-02   1.842386e-03   4.764108e-05   610946
  6.855006e-01   3.731132e-02   1.837794e-03   4.735949e-05   620852
  6.918722e-01   3.743287e-02   1.841901e-03   4.727939e-05   633530
  6.982524e-01   3.767053e-02   1.841844e-03   4.695550e-05   645704
  7.046316e-01   3.797117e-02   1.840565e-03   4.686393e-05   656744
  7.110074e-01   3.820136e-02   1.841941e-03   4.689416e-05   669162
  7.173906e-01   3.848318e-02   1.843286e-03   4.652925e-05   681992
  7.237681e-01   3.860654e-02   1.838959e-03   4.659196e-05   692360
  7.301485e-01   3.889724e-02   1.844364e-03   4.631185e-05   707006
  7.365206e-01   3.909289e-02   1.834135e-03   4.617563e-05   714944
  7.428835e-01   3.947092e-02   1.841775e-03   4.619797e-05   730346
  7.492606e-01   3.965312e-02   1.838962e-03   4.613999e-05   742616
  7.556415e-01   3.982813e-02   1.843530e-03   4.588333e-05   756536
  7.620128e-01   4.003223e-02   1.836595e-03   4.576596e-05   766418
  7.683917e-01   4.019979e-02   1.845753e-03   4.537048e-05   783392
  7.747614e-01   4.050510e-02   1.833632e-03   4.558744e-05   790412
  7.811334e-01   4.065082e-02   1.848120e-03   4.514852e-05   810314
  7.875277e-01   4.087604e-02   1.843702e-03   4.513997e-05   821960
  7.938987e-01   4.116819e-02   1.834976e-03   4.520970e-05   831266
  8.002712e-01   4.117356e-02   1.843706e-03   4.479662e-05   848960
  8.066557e-01   4.143868e-02   1.842629e-03   4.480891e-05   861488
  8.130204e-01   4.167354e-02   1.833334e-03   4.486636e-05   871194
  8.193985e-01   4.181896e-02   1.847247e-03   4.428303e-05   891788
  8.257796e-01   4.197610e-02   1.838008e-03   4.429305e-05   900416
  8.321422e-01   4.228658e-02   1.836250e-03   4.425150e-05   914306
  8.385264e-01   4.245870e-02   1.847988e-03   4.399071e-05   933992
  8.449011e-01   4.261325e-02   1.834294e-03   4.405418e-05   940826
  8.512701e-01   4.288007e-02   1.842364e-03   4.388978e-05   960224
  8.576621e-01   4.299783e-02   1.846556e-03   4.369653e-05   976316
  8.640381e-01   4.320931e-02   1.835724e-03   4.360088e-05   985010
  8.704114e-01   4.343231e-02   1.843336e-03   4.347004e-05   1004024
  8.767898e-01   4.352750e-02   1.839706e-03   4.340804e-05   1016288
  8.831639e-01   4.381773e-02   1.840690e-03   4.326693e-05   1032290
  8.895470e-01   4.389283e-02   1.843156e-03   4.300645e-05   1048640
  8.959130e-01   4.402910e-02   1.831919e-03   4.278254e-05   1057250
  9.022937e-01   4.430566e-02   1.849588e-03   4.270312e-05   1083140
  9.086870e-01   4.446825e-02   1.840763e-03   4.279577e-05   1092248
  9.150555e-01   4.459733e-02   1.837510e-03   4.257606e-05   1105914
  9.214310e-01   4.472119e-02   1.841822e-03   4.229489e-05   1124744
  9.278120e-01   4.499726e-02   1.841202e-03   4.225968e-05   1139120
  9.341841e-01   4.511611e-02   1.838536e-03   4.209848e-05   1153490
  9.405650e-01   4.532144e-02   1.844187e-03   4.207162e-05   1172936
  9.469357e-01   4.552330e-02   1.834491e-03   4.212809e-05   1182158
  9.533110e-01   4.561970e-02   1.846126e-03   4.160579e-05   1206392
  9.596894e-01   4.565669e-02   1.835525e-03   4.149231e-05   1215224
  9.660641e-01   4.593376e-02   1.844936e-03   4.134614e-05   1237874
  9.724505e-01   4.606691e-02   1.841050e-03   4.126385e-05   1251800
  9.788233e-01   4.609385e-02   1.838619e-03   4.114456e-05   1265792
  9.851993e-01   4.635512e-02   1.843109e-03   4.105977e-05   1286306
  9.915793e-01   4.647900e-02   1.838809e-03   4.093231e-05   1299764
  9.979438e-01   4.665749e-02   1.836769e-03   4.084166e-05   1314554
  1.004319e+00   4.676353e-02   1.843595e-03   4.058059e-05   1337288
  1.010703e+00   4.700462e-02   1.840912e-03   4.056864e-05   1351304
  1.017077e+00   4.704479e-02   1.841769e-03   4.028905e-05   1369026
  1.023461e+00   4.723637e-02   1.843478e-03   4.022505e-05   1388456
  1.029842e+00   4.739067e-02   1.840406e-03   4.026264e-05   1402700
  1.036211e+00   4.751212e-02   1.837802e-03   4.007200e-05   1418282
  1.042587e+00   4.774528e-02   1.843596e-03   3.994841e-05   1440272
  1.048964e+00   4.777350e-02   1.838705e-03   3.977706e-05   1454114
  1.055341e+00   4.791076e-02   1.842603e-03   3.964845e-05   1475480
  1.061720e+00   4.816588e-02   1.840520e-03   3.957447e-05   1490936
  1.068091e+00   4.812665e-02   1.838519e-03   3.931261e-05   1507826
  1.074472e+00   4.841394e-02   1.844275e-03   3.933393e-05   1530764
  1.080850e+00   4.834334e-02   1.839052e-03   3.908826e-05   1543424
  1.087222e+00   4.857499e-02   1.841688e-03   3.904140e-05   1564946
  1.093594e+00   4.871279e-02   1.835875e-03   3.897430e-05   1578536
  1.099970e+00   4.875631e-02   1.845670e-03   3.868445e-05   1604882
  1.106358e+00   4.883347e-02   1.842454e-03   3.854756e-05   1621304
  1.112736e+00   4.900269e-02   1.839545e-03   3.857544e-05   1637024
  1.119103e+00   4.927153e-02   1.837794e-03   3.846531e-05   1654134
  1.125480e+00   4.933546e-02   1.844256e-03   3.830705e-05   1679168
  1.131864e+00   4.930778e-02   1.841903e-03   3.803995e-05   1695944
  1.138235e+00   4.945498e-02   1.836568e-03   3.807463e-05   1710602
  1.144612e+00   4.962418e-02   1.844777e-03   3.783450e-05   1737056
  1.150994e+00   4.976902e-02   1.840390e-03   3.781201e-05   1752602
  1.157370e+00   4.976284e-02   1.839227e-03   3.757908e-05   1772024
  1.163752e+00   4.991947e-02   1.844090e-03   3.747192e-05   1795364
  1.170126e+00   4.998976e-02   1.836467e-03   3.744200e-05   1807634
  1.176490e+00   5.007304e-02   1.836183e-03   3.726787e-05   1827608
  1.182859e+00   5.026953e-02   1.840789e-03   3.726269e-05   1850984
  1.189240e+00   5.031364e-02   1.844107e-03   3.700564e-05   1874618
  1.195619e+00   5.045583e-02   1.838445e-03   3.694233e-05   1889504
  1.202001e+00   5.056705e-02   1.845373e-03   3.681692e-05   1916870
  1.208383e+00   5.052580e-02   1.838254e-03   3.663557e-05   1929728
  1.214760e+00   5.072958e-02   1.843674e-03   3.649979e-05   1955408
  1.221131e+00   5.076004e-02   1.834427e-03   3.643627e-05   1966842
  1.227503e+00   5.076181e-02   1.843005e-03   3.615485e-05   1996640
  1.233886e+00   5.087891e-02   1.842690e-03   3.610588e-05   2016392
  1.240265e+00   5.105080e-02   1.839730e-03   3.609679e-05   2034722
  1.246641e+00   5.114456e-02   1.840813e-03   3.600715e-05   2056460
  1.253014e+00   5.118100e-02   1.838931e-03   3.587423e-05   2075186
  1.259388e+00   5.124342e-02   1.840566e-03   3.571878e-05   2099096
  1.265761e+00   5.132605e-02   1.837910e-03   3.559504e-05   2116832
  1.272138e+00   5.146222e-02   1.844119e-03   3.542832e-05   2145146
  1.278526e+00   5.148774e-02   1.844128e-03   3.529251e-05   2166776
  1.284904e+00   5.160152e-02   1.838822e-03   3.525162e-05   2181848
  1.291273e+00   5.172568e-02   1.838785e-03   3.520219e-05   2203766
  1.297646e+00   5.178372e-02   1.840619e-03   3.504442e-05   2227664
  1.304025e+00   5.175800e-02   1.842381e-03   3.484208e-05   2252138
  1.310403e+00   5.190356e-02   1.839825e-03   3.482941e-05   2271152
  1.316777e+00   5.197888e-02   1.840536e-03   3.465061e-05   2293256
  1.323154e+00   5.197599e-02   1.842085e-03   3.451309e-05   2318130
  1.329536e+00   5.214418e-02   1.841956e-03   3.449591e-05   2340824
  1.335910e+00   5.218814e-02   1.838342e-03   3.433562e-05   2357990
  1.342292e+00   5.219215e-02   1.846396e-03   3.414448e-05   2391176
  1.348671e+00   5.231777e-02   1.837209e-03   3.418359e-05   2401808
  1.355040e+00   5.246029e-02   1.840258e-03   3.402254e-05   2428442
  1.361418e+00   5.243064e-02   1.842645e-03   3.385185e-05   2454752
  1.367798e+00   5.243979e-02   1.841270e-03   3.375540e-05   2475872
  1.374172e+00   5.252326e-02   1.838763e-03   3.367129e-05   2495822
  1.380543e+00   5.261738e-02   1.839940e-03   3.363284e-05   2520248
  1.386922e+00   5.255693e-02   1.844043e-03   3.338351e-05   2549186
  1.393299e+00   5.276058e-02   1.837661e-03   3.336760e-05   2564768
  1.399672e+00   5.278601e-02   1.841284e-03   3.327187e-05   2592968
  1.406054e+00   5.277867e-02   1.843378e-03   3.310558e-05   2619818
  1.412431e+00   5.290421e-02   1.838027e-03   3.305540e-05   2636384
  1.418803e+00   5.292223e-02   1.840293e-03   3.293764e-05   2662220
  1.425180e+00   5.296967e-02   1.842524e-03   3.278737e-05   2689770
  1.431560e+00   5.296579e-02   1.840994e-03   3.267738e-05   2712296
  1.437933e+00   5.306084e-02   1.838431e-03   3.260732e-05   2732618
  1.444312e+00   5.308314e-02   1.843932e-03   3.233465e-05   2765264
  1.450695e+00   5.309825e-02   1.840894e-03   3.232299e-05   2784824
  1.457066e+00   5.315938e-02   1.837138e-03   3.231389e-05   2804162
  1.463445e+00   5.323923e-02   1.844971e-03   3.209590e-05   2840612
  1.469825e+00   5.333385e-02   1.839130e-03   3.213375e-05   2855576
  1.476198e+00   5.330519e-02   1.840533e-03   3.192379e-05   2883458
  1.482571e+00   5.328481e-02   1.838217e-03   3.183584e-05   2904128
  1.488946e+00   5.335468e-02   1.843378e-03   3.166223e-05   2937026
  1.495325e+00   5.342357e-02   1.839218e-03   3.162848e-05   2956976
  1.501703e+00   5.343046e-02   1.841967e-03   3.148760e-05   2986472
  1.508082e+00   5.351424e-02   1.840166e-03   3.142029e-05   3008918
  1.514460e+00   5.351086e-02   1.841773e-03   3.129677e-05   3036752
  1.520836e+00   5.348894e-02   1.839884e-03   3.116210e-05   3058376
  1.527209e+00   5.368316e-02   1.839616e-03   3.117816e-05   3084210
  1.533583e+00   5.356862e-02   1.840948e-03   3.098822e-05   3111848
  1.539960e+00   5.359728e-02   1.841348e-03   3.086019e-05   3138890
  1.546339e+00   5.371880e-02   1.840626e-03   3.083220e-05   3164516
  1.552719e+00   5.372581e-02   1.842638e-03   3.067328e-05   3192656
  1.559097e+00   5.374988e-02   1.840555e-03   3.062636e-05   3215618
  1.565473e+00   5.372289e-02   1.840732e-03   3.049497e-05   3242888
  1.571846e+00   5.372032e-02   1.839114e-03   3.038706e-05   3265448
  1.578224e+00   5.381521e-02   1.843575e-03   3.028357e-05   3300842
  1.584604e+00   5.383786e-02   1.839884e-03   3.023743e-05   3321008
  1.590977e+00   5.377795e-02   1.839336e-03   3.009878e-05   3346406
  1.597352e+00   5.384915e-02   1.841596e-03   3.005731e-05   3377984
  1.603728e+00   5.376526e-02   1.839551e-03   2.989596e-05   3400352
  1.610103e+00   5.389525e-02   1.841321e-03   2.979676e-05   3431450
  1.616483e+00   5.385133e-02   1.841519e-03   2.969096e-05   3458768
  1.622859e+00   5.393340e-02   1.841183e-03   2.962987e-05   3484088
  1.629231e+00   5.395319e-02   1.838425e-03   2.955336e-05   3508218
  1.635610e+00   5.391422e-02   1.843946e-03   2.937821e-05   3545924
  1.641992e+00   5.396496e-02   1.841053e-03   2.935720e-05   3567530
  1.648369e+00   5.403301e-02   1.840183e-03   2.929202e-05   3595040
  1.654744e+00   5.397159e-02   1.840167e-03   2.913324e-05   3621176
  1.661115e+00   5.405310e-02   1.839521e-03   2.907536e-05   3647738
  1.667490e+00   5.397156e-02   1.841438e-03   2.890439e-05   3680480
  1.673870e+00   5.399656e-02   1.842082e-03   2.886356e-05   3709712
  1.680248e+00   5.403739e-02   1.840008e-03   2.876874e-05   3734702
  1.686623e+00   5.410245e-02   1.840362e-03   2.872569e-05   3762776
  1.692996e+00   5.404939e-02   1.839854e-03   2.861185e-05   3790514
  1.699371e+00   5.398649e-02   1.839908e-03   2.846080e-05   3820352
  1.705752e+00   5.401052e-02   1.844068e-03   2.837306e-05   3856016
  1.712131e+00   5.402114e-02   1.839690e-03   2.829769e-05   3876818
  1.718506e+00   5.402195e-02   1.839874e-03   2.822206e-05   3906332
  1.724882e+00   5.405571e-02   1.841963e-03   2.813260e-05   3938216
  1.731260e+00   5.409362e-02   1.840685e-03   2.805855e-05   3966354
  1.737636e+00   5.391214e-02   1.839695e-03   2.791797e-05   3993536
  1.744011e+00   5.398167e-02   1.840344e-03   2.784764e-05   4024034
  1.750392e+00   5.404093e-02   1.843071e-03   2.774454e-05   4060208
  1.756773e+00   5.398917e-02   1.840812e-03   2.766034e-05   4083632
  1.763145e+00   5.399879e-02   1.837811e-03   2.758143e-05   4107062
  1.769521e+00   5.394961e-02   1.842771e-03   2.743311e-05   4148072
  1.775893e+00   5.397497e-02   1.836707e-03   2.740497e-05   4163456
  1.782267e+00   5.396544e-02   1.842476e-03   2.731845e-05   4207994
  1.788652e+00   5.391141e-02   1.843367e-03   2.714460e-05   4239152
  1.795029e+00   5.397409e-02   1.839132e-03   2.715235e-05   4259426
  1.801407e+00   5.401228e-02   1.842524e-03   2.707377e-05   4299488
  1.807788e+00   5.393874e-02   1.840660e-03   2.694621e-05   4323692
  1.814162e+00   5.389148e-02   1.840093e-03   2.684899e-05   4353242
  1.820541e+00   5.393050e-02   1.841694e-03   2.675542e-05   4388792
