# power spectrum of T00 for cdm
# redshift z=48.519767
# k              Pk             sigma(k)       sigma(Pk)      count
  5.011399e-03   6.311358e+01   7.667927e-04   1.193031e+01   18
  1.037418e-02   1.425841e+03   1.725047e-03   1.632700e+02   128
  1.616528e-02   6.097538e+03   1.646572e-03   3.433799e+02   314
  2.269071e-02   1.439789e+04   1.954354e-03   5.570970e+02   728
  2.897169e-02   2.739635e+04   1.717946e-03   9.198224e+02   1016
  3.518826e-02   3.792567e+04   1.880676e-03   9.352074e+02   1682
  4.169479e-02   5.676355e+04   1.831736e-03   1.195959e+03   2300
  4.790974e-02   7.202076e+04   1.770731e-03   1.353245e+03   2906
  5.429022e-02   9.694195e+04   1.892687e-03   1.598611e+03   4040
  6.068098e-02   1.245913e+05   1.775551e-03   1.881670e+03   4712
  6.698900e-02   1.588594e+05   1.857705e-03   2.043088e+03   6002
  7.346135e-02   1.875623e+05   1.857594e-03   2.228402e+03   7256
  7.977379e-02   2.219957e+05   1.772571e-03   2.505835e+03   8120
  8.609019e-02   2.429589e+05   1.864951e-03   2.437323e+03   9950
  9.253636e-02   2.670619e+05   1.853578e-03   2.468901e+03   11384
  9.885187e-02   2.839695e+05   1.809244e-03   2.552069e+03   12666
  1.052712e-01   3.123036e+05   1.889168e-03   2.504220e+03   15104
  1.117654e-01   3.446121e+05   1.850532e-03   2.705328e+03   16616
  1.180754e-01   3.916360e+05   1.799489e-03   2.940184e+03   18026
  1.244216e-01   4.298028e+05   1.853405e-03   2.945341e+03   20696
  1.308065e-01   4.663894e+05   1.827918e-03   3.137820e+03   22436
  1.371558e-01   5.117251e+05   1.845873e-03   3.268287e+03   24962
  1.435394e-01   5.355194e+05   1.831283e-03   3.212923e+03   27176
  1.499133e-01   5.515477e+05   1.847268e-03   3.209335e+03   29810
  1.562775e-01   5.732045e+05   1.828450e-03   3.238142e+03   32120
  1.626776e-01   5.928737e+05   1.865216e-03   3.158605e+03   35432
  1.690383e-01   6.313152e+05   1.814577e-03   3.275913e+03   37238
  1.754019e-01   6.677705e+05   1.856016e-03   3.296093e+03   41072
  1.817869e-01   7.026910e+05   1.834293e-03   3.405566e+03   43472
  1.881565e-01   7.525881e+05   1.848176e-03   3.480004e+03   47042
  1.945298e-01   8.030110e+05   1.829223e-03   3.638752e+03   49712
  2.008693e-01   8.320589e+05   1.840592e-03   3.640681e+03   53226
  2.072637e-01   8.422509e+05   1.853753e-03   3.508071e+03   57320
  2.136558e-01   8.719219e+05   1.831629e-03   3.572702e+03   60092
  2.200056e-01   8.968836e+05   1.839426e-03   3.557359e+03   63914
  2.263950e-01   9.159568e+05   1.849752e-03   3.493602e+03   68192
  2.327751e-01   9.468483e+05   1.833934e-03   3.550413e+03   71336
  2.391397e-01   9.770596e+05   1.845607e-03   3.549048e+03   75818
  2.455297e-01   1.013571e+06   1.844019e-03   3.597459e+03   79880
  2.518964e-01   1.056789e+06   1.834462e-03   3.646527e+03   83642
  2.582661e-01   1.099077e+06   1.840779e-03   3.689811e+03   88316
  2.646730e-01   1.126292e+06   1.859422e-03   3.695712e+03   93488
  2.710484e-01   1.150368e+06   1.827184e-03   3.702937e+03   96458
  2.773871e-01   1.174767e+06   1.829038e-03   3.741447e+03   101264
  2.837816e-01   1.193774e+06   1.862873e-03   3.629727e+03   107696
  2.901819e-01   1.209444e+06   1.837217e-03   3.628519e+03   111170
  2.965233e-01   1.253417e+06   1.822285e-03   3.687208e+03   115232
  3.028941e-01   1.278597e+06   1.855375e-03   3.657849e+03   122310
  3.093019e-01   1.307339e+06   1.843350e-03   3.671293e+03   126944
  3.156739e-01   1.347513e+06   1.828600e-03   3.723154e+03   131192
  3.220432e-01   1.378953e+06   1.844535e-03   3.739245e+03   137618
  3.284234e-01   1.408304e+06   1.836674e-03   3.727184e+03   142448
  3.347979e-01   1.425240e+06   1.844704e-03   3.689791e+03   148520
  3.411627e-01   1.453690e+06   1.831436e-03   3.742487e+03   153254
  3.475446e-01   1.482051e+06   1.852010e-03   3.710591e+03   160760
  3.539284e-01   1.486615e+06   1.835751e-03   3.632259e+03   165290
  3.603019e-01   1.524702e+06   1.840148e-03   3.683394e+03   171992
  3.666828e-01   1.550940e+06   1.840217e-03   3.693488e+03   177800
  3.730569e-01   1.583289e+06   1.843032e-03   3.699840e+03   184322
  3.794439e-01   1.609285e+06   1.841595e-03   3.700254e+03   190832
  3.858239e-01   1.633675e+06   1.839260e-03   3.711049e+03   196772
  3.921872e-01   1.668024e+06   1.836453e-03   3.713696e+03   202970
  3.985536e-01   1.697079e+06   1.839266e-03   3.707212e+03   210056
  4.049173e-01   1.722128e+06   1.832832e-03   3.704931e+03   216210
  4.112896e-01   1.743412e+06   1.841640e-03   3.674464e+03   224168
  4.176700e-01   1.754725e+06   1.840761e-03   3.670691e+03   230792
  4.240565e-01   1.791939e+06   1.846256e-03   3.675594e+03   238778
  4.304312e-01   1.801710e+06   1.831772e-03   3.644559e+03   243956
  4.367939e-01   1.838903e+06   1.845141e-03   3.658502e+03   252680
  4.431746e-01   1.861097e+06   1.842020e-03   3.655106e+03   260066
  4.495713e-01   1.887586e+06   1.849294e-03   3.641629e+03   268712
  4.559494e-01   1.918577e+06   1.834336e-03   3.664192e+03   274034
  4.623270e-01   1.924261e+06   1.847366e-03   3.617840e+03   283904
  4.687088e-01   1.952439e+06   1.837425e-03   3.620952e+03   290048
  4.750707e-01   1.969418e+06   1.836659e-03   3.624689e+03   297950
  4.814434e-01   1.998229e+06   1.842026e-03   3.632644e+03   306968
  4.878269e-01   2.034916e+06   1.843240e-03   3.633263e+03   315320
  4.942006e-01   2.036757e+06   1.835899e-03   3.586279e+03   322346
  5.005701e-01   2.066019e+06   1.842589e-03   3.580160e+03   331664
  5.069538e-01   2.083473e+06   1.844896e-03   3.561865e+03   340818
  5.133346e-01   2.121357e+06   1.837322e-03   3.595773e+03   348164
  5.197083e-01   2.137697e+06   1.843548e-03   3.574390e+03   357584
  5.260929e-01   2.158102e+06   1.846059e-03   3.554183e+03   367106
  5.324635e-01   2.179421e+06   1.832285e-03   3.558075e+03   373376
  5.388350e-01   2.195691e+06   1.848023e-03   3.527837e+03   385376
  5.452233e-01   2.222641e+06   1.842356e-03   3.540898e+03   393650
  5.516038e-01   2.235999e+06   1.840588e-03   3.520896e+03   402704
  5.579656e-01   2.256934e+06   1.830970e-03   3.527805e+03   409910
  5.643320e-01   2.285366e+06   1.843407e-03   3.531004e+03   422024
  5.707212e-01   2.297227e+06   1.846526e-03   3.486883e+03   432176
  5.771022e-01   2.323872e+06   1.837404e-03   3.512756e+03   440066
  5.834769e-01   2.348633e+06   1.841263e-03   3.493776e+03   450680
  5.898365e-01   2.363725e+06   1.831084e-03   3.495595e+03   457856
  5.962115e-01   2.393208e+06   1.848347e-03   3.469408e+03   472538
  6.026013e-01   2.417061e+06   1.839689e-03   3.495096e+03   480140
  6.089752e-01   2.426834e+06   1.841279e-03   3.471335e+03   490842
  6.153517e-01   2.452878e+06   1.838382e-03   3.468920e+03   500744
  6.217295e-01   2.469036e+06   1.842392e-03   3.452481e+03   511856
  6.281145e-01   2.489978e+06   1.844734e-03   3.447093e+03   523202
  6.344991e-01   2.509541e+06   1.840396e-03   3.447811e+03   532688
  6.408638e-01   2.530327e+06   1.834541e-03   3.460565e+03   541520
  6.472341e-01   2.548169e+06   1.842653e-03   3.429796e+03   555110
  6.536136e-01   2.569659e+06   1.839126e-03   3.415126e+03   564944
  6.599884e-01   2.577158e+06   1.839832e-03   3.406153e+03   576434
  6.663740e-01   2.600094e+06   1.844405e-03   3.392688e+03   588848
  6.727501e-01   2.622844e+06   1.838623e-03   3.397292e+03   597704
  6.791236e-01   2.637752e+06   1.842386e-03   3.380270e+03   610946
  6.855006e-01   2.662128e+06   1.837794e-03   3.382796e+03   620852
  6.918722e-01   2.676112e+06   1.841901e-03   3.371088e+03   633530
  6.982524e-01   2.691771e+06   1.841844e-03   3.358245e+03   645704
  7.046316e-01   2.711392e+06   1.840565e-03   3.359557e+03   656744
  7.110074e-01   2.735014e+06   1.841941e-03   3.342988e+03   669162
  7.173906e-01   2.754927e+06   1.843286e-03   3.334684e+03   681992
  7.237681e-01   2.766398e+06   1.838959e-03   3.336453e+03   692360
  7.301485e-01   2.783267e+06   1.844364e-03   3.319682e+03   707006
  7.365206e-01   2.800829e+06   1.834135e-03   3.316860e+03   714944
  7.428835e-01   2.829694e+06   1.841775e-03   3.311606e+03   730346
  7.492606e-01   2.842062e+06   1.838962e-03   3.308149e+03   742616
  7.556415e-01   2.860838e+06   1.843530e-03   3.288875e+03   756536
  7.620128e-01   2.870486e+06   1.836595e-03   3.286209e+03   766418
  7.683917e-01   2.886885e+06   1.845753e-03   3.262809e+03   783392
  7.747614e-01   2.906435e+06   1.833632e-03   3.279901e+03   790412
  7.811334e-01   2.923270e+06   1.848120e-03   3.249149e+03   810314
  7.875277e-01   2.943520e+06   1.843702e-03   3.247856e+03   821960
  7.938987e-01   2.964110e+06   1.834976e-03   3.248530e+03   831266
  8.002712e-01   2.966861e+06   1.843706e-03   3.225432e+03   848960
  8.066557e-01   2.986526e+06   1.842629e-03   3.223622e+03   861488
  8.130204e-01   3.003948e+06   1.833334e-03   3.231425e+03   871194
  8.193985e-01   3.019856e+06   1.847247e-03   3.197641e+03   891788
  8.257796e-01   3.038118e+06   1.838008e-03   3.205512e+03   900416
  8.321422e-01   3.060875e+06   1.836250e-03   3.199268e+03   914306
  8.385264e-01   3.068043e+06   1.847988e-03   3.177754e+03   933992
  8.449011e-01   3.081914e+06   1.834294e-03   3.182096e+03   940826
  8.512701e-01   3.106118e+06   1.842364e-03   3.184984e+03   960224
  8.576621e-01   3.116989e+06   1.846556e-03   3.158093e+03   976316
  8.640381e-01   3.127223e+06   1.835724e-03   3.146800e+03   985010
  8.704114e-01   3.145981e+06   1.843336e-03   3.143564e+03   1004024
  8.767898e-01   3.151856e+06   1.839706e-03   3.139607e+03   1016288
  8.831639e-01   3.181502e+06   1.840690e-03   3.133480e+03   1032290
  8.895470e-01   3.191586e+06   1.843156e-03   3.122231e+03   1048640
  8.959130e-01   3.199109e+06   1.831919e-03   3.115740e+03   1057250
  9.022937e-01   3.228216e+06   1.849588e-03   3.105119e+03   1083140
  9.086870e-01   3.243186e+06   1.840763e-03   3.113567e+03   1092248
  9.150555e-01   3.249023e+06   1.837510e-03   3.095387e+03   1105914
  9.214310e-01   3.262229e+06   1.841822e-03   3.074709e+03   1124744
  9.278120e-01   3.281333e+06   1.841202e-03   3.080961e+03   1139120
  9.341841e-01   3.298787e+06   1.838536e-03   3.069099e+03   1153490
  9.405650e-01   3.307550e+06   1.844187e-03   3.058750e+03   1172936
  9.469357e-01   3.326925e+06   1.834491e-03   3.067019e+03   1182158
  9.533110e-01   3.334889e+06   1.846126e-03   3.030012e+03   1206392
  9.596894e-01   3.345302e+06   1.835525e-03   3.033564e+03   1215224
  9.660641e-01   3.362107e+06   1.844936e-03   3.019923e+03   1237874
  9.724505e-01   3.380968e+06   1.841050e-03   3.025178e+03   1251800
  9.788233e-01   3.385898e+06   1.838619e-03   3.011256e+03   1265792
  9.851993e-01   3.413764e+06   1.843109e-03   3.019242e+03   1286306
  9.915793e-01   3.420080e+06   1.838809e-03   3.009767e+03   1299764
  9.979438e-01   3.436201e+06   1.836769e-03   2.998965e+03   1314554
  1.004319e+00   3.441505e+06   1.843595e-03   2.980442e+03   1337288
  1.010703e+00   3.459133e+06   1.840912e-03   2.975486e+03   1351304
  1.017077e+00   3.469214e+06   1.841769e-03   2.955996e+03   1369026
  1.023461e+00   3.482362e+06   1.843478e-03   2.957349e+03   1388456
  1.029842e+00   3.500490e+06   1.840406e-03   2.966379e+03   1402700
  1.036211e+00   3.510140e+06   1.837802e-03   2.954520e+03   1418282
  1.042587e+00   3.525953e+06   1.843596e-03   2.942440e+03   1440272
  1.048964e+00   3.537917e+06   1.838705e-03   2.937617e+03   1454114
  1.055341e+00   3.546356e+06   1.842603e-03   2.920211e+03   1475480
  1.061720e+00   3.565675e+06   1.840520e-03   2.920222e+03   1490936
  1.068091e+00   3.568997e+06   1.838519e-03   2.909813e+03   1507826
  1.074472e+00   3.588174e+06   1.844275e-03   2.911196e+03   1530764
  1.080850e+00   3.593291e+06   1.839052e-03   2.892233e+03   1543424
  1.087222e+00   3.615350e+06   1.841688e-03   2.894698e+03   1564946
  1.093594e+00   3.626819e+06   1.835875e-03   2.885267e+03   1578536
  1.099970e+00   3.636646e+06   1.845670e-03   2.872206e+03   1604882
  1.106358e+00   3.649492e+06   1.842454e-03   2.870381e+03   1621304
  1.112736e+00   3.656002e+06   1.839545e-03   2.869186e+03   1637024
  1.119103e+00   3.673572e+06   1.837794e-03   2.865215e+03   1654134
  1.125480e+00   3.684230e+06   1.844256e-03   2.849526e+03   1679168
  1.131864e+00   3.695610e+06   1.841903e-03   2.839550e+03   1695944
  1.138235e+00   3.711085e+06   1.836568e-03   2.840111e+03   1710602
  1.144612e+00   3.722373e+06   1.844777e-03   2.831134e+03   1737056
  1.150994e+00   3.734117e+06   1.840390e-03   2.825533e+03   1752602
  1.157370e+00   3.738146e+06   1.839227e-03   2.814832e+03   1772024
  1.163752e+00   3.753200e+06   1.844090e-03   2.809659e+03   1795364
  1.170126e+00   3.762716e+06   1.836467e-03   2.805828e+03   1807634
  1.176490e+00   3.777144e+06   1.836183e-03   2.797431e+03   1827608
  1.182859e+00   3.785974e+06   1.840789e-03   2.788020e+03   1850984
  1.189240e+00   3.794189e+06   1.844107e-03   2.772517e+03   1874618
  1.195619e+00   3.806721e+06   1.838445e-03   2.773932e+03   1889504
  1.202001e+00   3.819650e+06   1.845373e-03   2.764647e+03   1916870
  1.208383e+00   3.824555e+06   1.838254e-03   2.759431e+03   1929728
  1.214760e+00   3.845670e+06   1.843674e-03   2.755823e+03   1955408
  1.221131e+00   3.851781e+06   1.834427e-03   2.747236e+03   1966842
  1.227503e+00   3.859424e+06   1.843005e-03   2.737259e+03   1996640
  1.233886e+00   3.873654e+06   1.842690e-03   2.739485e+03   2016392
  1.240265e+00   3.885904e+06   1.839730e-03   2.724918e+03   2034722
  1.246641e+00   3.887989e+06   1.840813e-03   2.716633e+03   2056460
  1.253014e+00   3.902363e+06   1.838931e-03   2.715515e+03   2075186
  1.259388e+00   3.913025e+06   1.840566e-03   2.709805e+03   2099096
  1.265761e+00   3.926595e+06   1.837910e-03   2.705882e+03   2116832
  1.272138e+00   3.930900e+06   1.844119e-03   2.689407e+03   2145146
  1.278526e+00   3.938640e+06   1.844128e-03   2.681496e+03   2166776
  1.284904e+00   3.953572e+06   1.838822e-03   2.680927e+03   2181848
  1.291273e+00   3.964470e+06   1.838785e-03   2.678673e+03   2203766
  1.297646e+00   3.971759e+06   1.840619e-03   2.664719e+03   2227664
  1.304025e+00   3.981641e+06   1.842381e-03   2.661159e+03   2252138
  1.310403e+00   3.987275e+06   1.839825e-03   2.654123e+03   2271152
  1.316777e+00   4.002128e+06   1.840536e-03   2.646919e+03   2293256
  1.323154e+00   4.012920e+06   1.842085e-03   2.649499e+03   2318130
  1.329536e+00   4.026596e+06   1.841956e-03   2.641273e+03   2340824
  1.335910e+00   4.028896e+06   1.838342e-03   2.631987e+03   2357990
  1.342292e+00   4.039711e+06   1.846396e-03   2.619489e+03   2391176
  1.348671e+00   4.052464e+06   1.837209e-03   2.619221e+03   2401808
  1.355040e+00   4.064294e+06   1.840258e-03   2.613725e+03   2428442
  1.361418e+00   4.068462e+06   1.842645e-03   2.603117e+03   2454752
  1.367798e+00   4.071252e+06   1.841270e-03   2.595904e+03   2475872
  1.374172e+00   4.082406e+06   1.838763e-03   2.592984e+03   2495822
  1.380543e+00   4.090560e+06   1.839940e-03   2.583419e+03   2520248
  1.386922e+00   4.097339e+06   1.844043e-03   2.577417e+03   2549186
  1.393299e+00   4.112119e+06   1.837661e-03   2.572433e+03   2564768
  1.399672e+00   4.123785e+06   1.841284e-03   2.573021e+03   2592968
  1.406054e+00   4.126003e+06   1.843378e-03   2.562567e+03   2619818
  1.412431e+00   4.142453e+06   1.838027e-03   2.564385e+03   2636384
  1.418803e+00   4.142474e+06   1.840293e-03   2.550750e+03   2662220
  1.425180e+00   4.156226e+06   1.842524e-03   2.543384e+03   2689770
  1.431560e+00   4.163321e+06   1.840994e-03   2.535887e+03   2712296
  1.437933e+00   4.168489e+06   1.838431e-03   2.529946e+03   2732618
  1.444312e+00   4.175815e+06   1.843932e-03   2.518227e+03   2765264
  1.450695e+00   4.192864e+06   1.840894e-03   2.521264e+03   2784824
  1.457066e+00   4.195142e+06   1.837138e-03   2.511068e+03   2804162
  1.463445e+00   4.208480e+06   1.844971e-03   2.504399e+03   2840612
  1.469825e+00   4.216402e+06   1.839130e-03   2.505599e+03   2855576
  1.476198e+00   4.215855e+06   1.840533e-03   2.491534e+03   2883458
  1.482571e+00   4.231225e+06   1.838217e-03   2.493173e+03   2904128
  1.488946e+00   4.239267e+06   1.843378e-03   2.484893e+03   2937026
  1.495325e+00   4.246232e+06   1.839218e-03   2.477525e+03   2956976
  1.501703e+00   4.250845e+06   1.841967e-03   2.469238e+03   2986472
  1.508082e+00   4.264548e+06   1.840166e-03   2.468592e+03   3008918
  1.514460e+00   4.264666e+06   1.841773e-03   2.456995e+03   3036752
  1.520836e+00   4.278893e+06   1.839884e-03   2.455593e+03   3058376
  1.527209e+00   4.289731e+06   1.839616e-03   2.453382e+03   3084210
  1.533583e+00   4.292944e+06   1.840948e-03   2.443151e+03   3111848
  1.539960e+00   4.300853e+06   1.841348e-03   2.436322e+03   3138890
  1.546339e+00   4.308910e+06   1.840626e-03   2.436777e+03   3164516
  1.552719e+00   4.315362e+06   1.842638e-03   2.423698e+03   3192656
  1.559097e+00   4.320481e+06   1.840555e-03   2.418254e+03   3215618
  1.565473e+00   4.330437e+06   1.840732e-03   2.416375e+03   3242888
  1.571846e+00   4.338596e+06   1.839114e-03   2.409769e+03   3265448
  1.578224e+00   4.346174e+06   1.843575e-03   2.405030e+03   3300842
  1.584604e+00   4.348346e+06   1.839884e-03   2.399581e+03   3321008
  1.590977e+00   4.354257e+06   1.839336e-03   2.392836e+03   3346406
  1.597352e+00   4.362778e+06   1.841596e-03   2.385147e+03   3377984
  1.603728e+00   4.370284e+06   1.839551e-03   2.378877e+03   3400352
  1.610103e+00   4.385495e+06   1.841321e-03   2.379487e+03   3431450
  1.616483e+00   4.384525e+06   1.841519e-03   2.368027e+03   3458768
  1.622859e+00   4.391394e+06   1.841183e-03   2.365708e+03   3484088
  1.629231e+00   4.406539e+06   1.838425e-03   2.366882e+03   3508218
  1.635610e+00   4.409403e+06   1.843946e-03   2.356830e+03   3545924
  1.641992e+00   4.411963e+06   1.841053e-03   2.350796e+03   3567530
  1.648369e+00   4.421971e+06   1.840183e-03   2.345959e+03   3595040
  1.654744e+00   4.431142e+06   1.840167e-03   2.344098e+03   3621176
  1.661115e+00   4.433646e+06   1.839521e-03   2.333516e+03   3647738
  1.667490e+00   4.442462e+06   1.841438e-03   2.328378e+03   3680480
  1.673870e+00   4.445610e+06   1.842082e-03   2.323764e+03   3709712
  1.680248e+00   4.453955e+06   1.840008e-03   2.319254e+03   3734702
  1.686623e+00   4.457244e+06   1.840362e-03   2.310720e+03   3762776
  1.692996e+00   4.463499e+06   1.839854e-03   2.310455e+03   3790514
  1.699371e+00   4.469729e+06   1.839908e-03   2.301183e+03   3820352
  1.705752e+00   4.476262e+06   1.844068e-03   2.294672e+03   3856016
  1.712131e+00   4.486049e+06   1.839690e-03   2.296919e+03   3876818
  1.718506e+00   4.494423e+06   1.839874e-03   2.290257e+03   3906332
  1.724882e+00   4.497475e+06   1.841963e-03   2.282835e+03   3938216
  1.731260e+00   4.499165e+06   1.840685e-03   2.275443e+03   3966354
  1.737636e+00   4.503975e+06   1.839695e-03   2.269949e+03   3993536
  1.744011e+00   4.510413e+06   1.840344e-03   2.268088e+03   4024034
  1.750392e+00   4.521619e+06   1.843071e-03   2.260811e+03   4060208
  1.756773e+00   4.520910e+06   1.840812e-03   2.255041e+03   4083632
  1.763145e+00   4.534473e+06   1.837811e-03   2.255873e+03   4107062
  1.769521e+00   4.532373e+06   1.842771e-03   2.240982e+03   4148072
  1.775893e+00   4.538718e+06   1.836707e-03   2.242493e+03   4163456
  1.782267e+00   4.545108e+06   1.842476e-03   2.232787e+03   4207994
  1.788652e+00   4.548211e+06   1.843367e-03   2.227573e+03   4239152
  1.795029e+00   4.559055e+06   1.839132e-03   2.229384e+03   4259426
  1.801407e+00   4.562227e+06   1.842524e-03   2.219334e+03   4299488
  1.807788e+00   4.569958e+06   1.840660e-03   2.215364e+03   4323692
  1.814162e+00   4.569680e+06   1.840093e-03   2.210944e+03   4353242
  1.820541e+00   4.582881e+06   1.841694e-03   2.205888e+03   4388792
