# power spectrum of delta for linear fields (CLASS)
# redshift z=96.079122
# k              Pk             sigma(k)       sigma(Pk)      count
  5.011399e-03   3.220307e-11   7.667927e-04   6.090798e-12   18
  1.037418e-02   2.741856e-10   1.725047e-03   2.973510e-11   128
  1.616528e-02   9.059333e-10   1.646572e-03   5.008119e-11   314
  2.269071e-02   1.916054e-09   1.954354e-03   7.347771e-11   728
  2.897169e-02   3.481533e-09   1.717946e-03   1.167858e-10   1016
  3.518826e-02   4.697287e-09   1.880676e-03   1.157076e-10   1682
  4.169479e-02   6.916628e-09   1.831736e-03   1.456042e-10   2300
  4.790974e-02   8.698627e-09   1.770731e-03   1.634235e-10   2906
  5.429022e-02   1.164259e-08   1.892687e-03   1.919847e-10   4040
  6.068098e-02   1.489790e-08   1.775551e-03   2.250111e-10   4712
  6.698900e-02   1.894288e-08   1.857705e-03   2.435583e-10   6002
  7.346135e-02   2.230202e-08   1.857594e-03   2.649478e-10   7256
  7.977379e-02   2.632937e-08   1.772571e-03   2.971094e-10   8120
  8.609019e-02   2.875269e-08   1.864951e-03   2.884463e-10   9950
  9.253636e-02   3.154888e-08   1.853578e-03   2.916290e-10   11384
  9.885187e-02   3.349675e-08   1.809244e-03   3.009850e-10   12666
  1.052712e-01   3.680530e-08   1.889168e-03   2.950748e-10   15104
  1.117654e-01   4.060237e-08   1.850532e-03   3.186823e-10   16616
  1.180754e-01   4.614025e-08   1.799489e-03   3.464195e-10   18026
  1.244216e-01   5.062943e-08   1.853405e-03   3.469668e-10   20696
  1.308065e-01   5.491799e-08   1.827918e-03   3.694884e-10   22436
  1.371558e-01   6.022861e-08   1.845873e-03   3.847993e-10   24962
  1.435394e-01   6.297354e-08   1.831283e-03   3.778811e-10   27176
  1.499133e-01   6.480683e-08   1.847268e-03   3.771469e-10   29810
  1.562775e-01   6.729746e-08   1.828450e-03   3.801835e-10   32120
  1.626776e-01   6.955955e-08   1.865216e-03   3.705262e-10   35432
  1.690383e-01   7.408143e-08   1.814577e-03   3.845558e-10   37238
  1.754019e-01   7.836206e-08   1.856016e-03   3.867602e-10   41072
  1.817869e-01   8.247124e-08   1.834293e-03   3.996773e-10   43472
  1.881565e-01   8.831257e-08   1.848176e-03   4.083670e-10   47042
  1.945298e-01   9.423906e-08   1.829223e-03   4.268588e-10   49712
  2.008693e-01   9.758561e-08   1.840592e-03   4.271003e-10   53226
  2.072637e-01   9.875916e-08   1.853753e-03   4.112458e-10   57320
  2.136558e-01   1.021864e-07   1.831629e-03   4.187837e-10   60092
  2.200056e-01   1.050632e-07   1.839426e-03   4.166648e-10   63914
  2.263950e-01   1.072655e-07   1.849752e-03   4.092160e-10   68192
  2.327751e-01   1.108783e-07   1.833934e-03   4.157712e-10   71336
  2.391397e-01   1.143769e-07   1.845607e-03   4.154955e-10   75818
  2.455297e-01   1.186565e-07   1.844019e-03   4.211091e-10   79880
  2.518964e-01   1.237353e-07   1.834462e-03   4.269391e-10   83642
  2.582661e-01   1.286201e-07   1.840779e-03   4.317423e-10   88316
  2.646730e-01   1.318032e-07   1.859422e-03   4.323892e-10   93488
  2.710484e-01   1.346039e-07   1.827184e-03   4.330785e-10   96458
  2.773871e-01   1.373963e-07   1.829038e-03   4.376615e-10   101264
  2.837816e-01   1.395843e-07   1.862873e-03   4.243229e-10   107696
  2.901819e-01   1.413348e-07   1.837217e-03   4.240302e-10   111170
  2.965233e-01   1.464986e-07   1.822285e-03   4.307707e-10   115232
  3.028941e-01   1.493908e-07   1.855375e-03   4.273653e-10   122310
  3.093019e-01   1.527503e-07   1.843350e-03   4.288987e-10   126944
  3.156739e-01   1.574253e-07   1.828600e-03   4.348721e-10   131192
  3.220432e-01   1.611084e-07   1.844535e-03   4.368563e-10   137618
  3.284234e-01   1.644411e-07   1.836674e-03   4.352413e-10   142448
  3.347979e-01   1.664082e-07   1.844704e-03   4.307950e-10   148520
  3.411627e-01   1.697108e-07   1.831436e-03   4.368044e-10   153254
  3.475446e-01   1.729513e-07   1.852010e-03   4.329525e-10   160760
  3.539284e-01   1.734255e-07   1.835751e-03   4.237484e-10   165290
  3.603019e-01   1.777810e-07   1.840148e-03   4.295362e-10   171992
  3.666828e-01   1.808330e-07   1.840217e-03   4.305605e-10   177800
  3.730569e-01   1.845605e-07   1.843032e-03   4.315092e-10   184322
  3.794439e-01   1.876169e-07   1.841595e-03   4.314084e-10   190832
  3.858239e-01   1.903568e-07   1.839260e-03   4.323976e-10   196772
  3.921872e-01   1.942998e-07   1.836453e-03   4.325994e-10   202970
  3.985536e-01   1.976702e-07   1.839266e-03   4.316503e-10   210056
  4.049173e-01   2.005111e-07   1.832832e-03   4.312226e-10   216210
  4.112896e-01   2.029635e-07   1.841640e-03   4.277462e-10   224168
  4.176700e-01   2.042369e-07   1.840761e-03   4.272213e-10   230792
  4.240565e-01   2.084775e-07   1.846256e-03   4.276594e-10   238778
  4.304312e-01   2.095984e-07   1.831772e-03   4.238856e-10   243956
  4.367939e-01   2.138539e-07   1.845141e-03   4.253269e-10   252680
  4.431746e-01   2.163025e-07   1.842020e-03   4.246734e-10   260066
  4.495713e-01   2.193815e-07   1.849294e-03   4.231883e-10   268712
  4.559494e-01   2.229620e-07   1.834336e-03   4.258564e-10   274034
  4.623270e-01   2.235388e-07   1.847366e-03   4.203078e-10   283904
  4.687088e-01   2.267820e-07   1.837425e-03   4.204968e-10   290048
  4.750707e-01   2.287030e-07   1.836659e-03   4.208952e-10   297950
  4.814434e-01   2.318884e-07   1.842026e-03   4.214719e-10   306968
  4.878269e-01   2.361108e-07   1.843240e-03   4.215074e-10   315320
  4.942006e-01   2.362722e-07   1.835899e-03   4.159835e-10   322346
  5.005701e-01   2.395614e-07   1.842589e-03   4.151951e-10   331664
  5.069538e-01   2.415505e-07   1.844896e-03   4.130079e-10   340818
  5.133346e-01   2.458638e-07   1.837322e-03   4.166710e-10   348164
  5.197083e-01   2.476704e-07   1.843548e-03   4.142199e-10   357584
  5.260929e-01   2.499101e-07   1.846059e-03   4.115201e-10   367106
  5.324635e-01   2.524109e-07   1.832285e-03   4.121061e-10   373376
  5.388350e-01   2.541583e-07   1.848023e-03   4.083387e-10   385376
  5.452233e-01   2.572026e-07   1.842356e-03   4.098796e-10   393650
  5.516038e-01   2.586816e-07   1.840588e-03   4.071840e-10   402704
  5.579656e-01   2.610606e-07   1.830970e-03   4.081032e-10   409910
  5.643320e-01   2.641286e-07   1.843407e-03   4.081878e-10   422024
  5.707212e-01   2.655207e-07   1.846526e-03   4.029136e-10   432176
  5.771022e-01   2.685579e-07   1.837404e-03   4.058870e-10   440066
  5.834769e-01   2.713539e-07   1.841263e-03   4.035429e-10   450680
  5.898365e-01   2.729064e-07   1.831084e-03   4.036023e-10   457856
  5.962115e-01   2.762605e-07   1.848347e-03   4.002558e-10   472538
  6.026013e-01   2.788170e-07   1.839689e-03   4.031272e-10   480140
  6.089752e-01   2.799484e-07   1.841279e-03   4.004597e-10   490842
  6.153517e-01   2.828110e-07   1.838382e-03   3.999293e-10   500744
  6.217295e-01   2.846516e-07   1.842392e-03   3.981053e-10   511856
  6.281145e-01   2.868455e-07   1.844734e-03   3.969428e-10   523202
  6.344991e-01   2.889892e-07   1.840396e-03   3.969205e-10   532688
  6.408638e-01   2.913389e-07   1.834541e-03   3.985320e-10   541520
  6.472341e-01   2.932404e-07   1.842653e-03   3.946622e-10   555110
  6.536136e-01   2.956829e-07   1.839126e-03   3.930247e-10   564944
  6.599884e-01   2.964103e-07   1.839832e-03   3.916369e-10   576434
  6.663740e-01   2.989026e-07   1.844405e-03   3.900632e-10   588848
  6.727501e-01   3.014878e-07   1.838623e-03   3.905811e-10   597704
  6.791236e-01   3.028876e-07   1.842386e-03   3.880455e-10   610946
  6.855006e-01   3.056510e-07   1.837794e-03   3.883206e-10   620852
  6.918722e-01   3.071912e-07   1.841901e-03   3.869623e-10   633530
  6.982524e-01   3.088411e-07   1.841844e-03   3.853058e-10   645704
  7.046316e-01   3.109257e-07   1.840565e-03   3.852011e-10   656744
  7.110074e-01   3.135637e-07   1.841941e-03   3.831645e-10   669162
  7.173906e-01   3.156493e-07   1.843286e-03   3.820549e-10   681992
  7.237681e-01   3.168868e-07   1.838959e-03   3.821928e-10   692360
  7.301485e-01   3.186420e-07   1.844364e-03   3.800324e-10   707006
  7.365206e-01   3.205812e-07   1.834135e-03   3.797033e-10   714944
  7.428835e-01   3.236916e-07   1.841775e-03   3.787206e-10   730346
  7.492606e-01   3.249298e-07   1.838962e-03   3.780151e-10   742616
  7.556415e-01   3.270279e-07   1.843530e-03   3.759004e-10   756536
  7.620128e-01   3.279165e-07   1.836595e-03   3.752179e-10   766418
  7.683917e-01   3.296540e-07   1.845753e-03   3.725551e-10   783392
  7.747614e-01   3.317399e-07   1.833632e-03   3.743426e-10   790412
  7.811334e-01   3.335882e-07   1.848120e-03   3.707995e-10   810314
  7.875277e-01   3.356580e-07   1.843702e-03   3.702028e-10   821960
  7.938987e-01   3.378640e-07   1.834976e-03   3.701381e-10   831266
  8.002712e-01   3.381312e-07   1.843706e-03   3.674993e-10   848960
  8.066557e-01   3.401804e-07   1.842629e-03   3.670856e-10   861488
  8.130204e-01   3.419772e-07   1.833334e-03   3.675680e-10   871194
  8.193985e-01   3.436534e-07   1.847247e-03   3.637507e-10   891788
  8.257796e-01   3.456500e-07   1.838008e-03   3.645520e-10   900416
  8.321422e-01   3.480376e-07   1.836250e-03   3.636386e-10   914306
  8.385264e-01   3.485541e-07   1.847988e-03   3.609369e-10   933992
  8.449011e-01   3.500065e-07   1.834294e-03   3.612464e-10   940826
  8.512701e-01   3.525567e-07   1.842364e-03   3.614496e-10   960224
  8.576621e-01   3.536676e-07   1.846556e-03   3.581401e-10   976316
  8.640381e-01   3.544835e-07   1.835724e-03   3.565271e-10   985010
  8.704114e-01   3.567179e-07   1.843336e-03   3.564027e-10   1004024
  8.767898e-01   3.570612e-07   1.839706e-03   3.554808e-10   1016288
  8.831639e-01   3.602787e-07   1.840690e-03   3.546833e-10   1032290
  8.895470e-01   3.612285e-07   1.843156e-03   3.531414e-10   1048640
  8.959130e-01   3.618660e-07   1.831919e-03   3.522255e-10   1057250
  9.022937e-01   3.650578e-07   1.849588e-03   3.510445e-10   1083140
  9.086870e-01   3.665241e-07   1.840763e-03   3.515759e-10   1092248
  9.150555e-01   3.668915e-07   1.837510e-03   3.492786e-10   1105914
  9.214310e-01   3.683091e-07   1.841822e-03   3.470031e-10   1124744
  9.278120e-01   3.702707e-07   1.841202e-03   3.474091e-10   1139120
  9.341841e-01   3.720478e-07   1.838536e-03   3.458691e-10   1153490
  9.405650e-01   3.727558e-07   1.844187e-03   3.445761e-10   1172936
  9.469357e-01   3.748319e-07   1.834491e-03   3.453508e-10   1182158
  9.533110e-01   3.753760e-07   1.846126e-03   3.407532e-10   1206392
  9.596894e-01   3.765558e-07   1.835525e-03   3.413185e-10   1215224
  9.660641e-01   3.781623e-07   1.844936e-03   3.394219e-10   1237874
  9.724505e-01   3.800077e-07   1.841050e-03   3.398078e-10   1251800
  9.788233e-01   3.804539e-07   1.838619e-03   3.379542e-10   1265792
  9.851993e-01   3.833775e-07   1.843109e-03   3.387468e-10   1286306
  9.915793e-01   3.837725e-07   1.838809e-03   3.375353e-10   1299764
  9.979438e-01   3.854682e-07   1.836769e-03   3.360901e-10   1314554
  1.004319e+00   3.857527e-07   1.843595e-03   3.338814e-10   1337288
  1.010703e+00   3.874880e-07   1.840912e-03   3.329250e-10   1351304
  1.017077e+00   3.884658e-07   1.841769e-03   3.306019e-10   1369026
  1.023461e+00   3.895992e-07   1.843478e-03   3.305212e-10   1388456
  1.029842e+00   3.914519e-07   1.840406e-03   3.315200e-10   1402700
  1.036211e+00   3.923324e-07   1.837802e-03   3.298648e-10   1418282
  1.042587e+00   3.938188e-07   1.843596e-03   3.283087e-10   1440272
  1.048964e+00   3.949877e-07   1.838705e-03   3.277370e-10   1454114
  1.055341e+00   3.956379e-07   1.842603e-03   3.256387e-10   1475480
  1.061720e+00   3.975897e-07   1.840520e-03   3.254200e-10   1490936
  1.068091e+00   3.977798e-07   1.838519e-03   3.239839e-10   1507826
  1.074472e+00   3.993967e-07   1.844275e-03   3.237231e-10   1530764
  1.080850e+00   3.999721e-07   1.839052e-03   3.215335e-10   1543424
  1.087222e+00   4.021367e-07   1.841688e-03   3.214937e-10   1564946
  1.093594e+00   4.030725e-07   1.835875e-03   3.202926e-10   1578536
  1.099970e+00   4.039768e-07   1.845670e-03   3.185283e-10   1604882
  1.106358e+00   4.051659e-07   1.842454e-03   3.182498e-10   1621304
  1.112736e+00   4.056224e-07   1.839545e-03   3.179367e-10   1637024
  1.119103e+00   4.072177e-07   1.837794e-03   3.173016e-10   1654134
  1.125480e+00   4.081516e-07   1.844256e-03   3.153463e-10   1679168
  1.131864e+00   4.092936e-07   1.841903e-03   3.141655e-10   1695944
  1.138235e+00   4.107106e-07   1.836568e-03   3.139738e-10   1710602
  1.144612e+00   4.117032e-07   1.844777e-03   3.128377e-10   1737056
  1.150994e+00   4.126185e-07   1.840390e-03   3.118765e-10   1752602
  1.157370e+00   4.129687e-07   1.839227e-03   3.104276e-10   1772024
  1.163752e+00   4.142430e-07   1.844090e-03   3.096806e-10   1795364
  1.170126e+00   4.151117e-07   1.836467e-03   3.091451e-10   1807634
  1.176490e+00   4.163238e-07   1.836183e-03   3.079830e-10   1827608
  1.182859e+00   4.169254e-07   1.840789e-03   3.064595e-10   1850984
  1.189240e+00   4.175356e-07   1.844107e-03   3.047165e-10   1874618
  1.195619e+00   4.187784e-07   1.838445e-03   3.047706e-10   1889504
  1.202001e+00   4.199253e-07   1.845373e-03   3.035123e-10   1916870
  1.208383e+00   4.202304e-07   1.838254e-03   3.026241e-10   1929728
  1.214760e+00   4.221690e-07   1.843674e-03   3.019577e-10   1955408
  1.221131e+00   4.225031e-07   1.834427e-03   3.009069e-10   1966842
  1.227503e+00   4.231843e-07   1.843005e-03   2.995937e-10   1996640
  1.233886e+00   4.244485e-07   1.842690e-03   2.996559e-10   2016392
  1.240265e+00   4.254209e-07   1.839730e-03   2.978055e-10   2034722
  1.246641e+00   4.252859e-07   1.840813e-03   2.965220e-10   2056460
  1.253014e+00   4.266369e-07   1.838931e-03   2.962944e-10   2075186
  1.259388e+00   4.274364e-07   1.840566e-03   2.954078e-10   2099096
  1.265761e+00   4.287065e-07   1.837910e-03   2.948230e-10   2116832
  1.272138e+00   4.289092e-07   1.844119e-03   2.927977e-10   2145146
  1.278526e+00   4.293220e-07   1.844128e-03   2.916427e-10   2166776
  1.284904e+00   4.307637e-07   1.838822e-03   2.914124e-10   2181848
  1.291273e+00   4.315935e-07   1.838785e-03   2.910447e-10   2203766
  1.297646e+00   4.320064e-07   1.840619e-03   2.890450e-10   2227664
  1.304025e+00   4.329269e-07   1.842381e-03   2.886211e-10   2252138
  1.310403e+00   4.330423e-07   1.839825e-03   2.875632e-10   2271152
  1.316777e+00   4.342756e-07   1.840536e-03   2.865574e-10   2293256
  1.323154e+00   4.352207e-07   1.842085e-03   2.865867e-10   2318130
  1.329536e+00   4.363050e-07   1.841956e-03   2.854981e-10   2340824
  1.335910e+00   4.362691e-07   1.838342e-03   2.844123e-10   2357990
  1.342292e+00   4.371662e-07   1.846396e-03   2.827535e-10   2391176
  1.348671e+00   4.381936e-07   1.837209e-03   2.825309e-10   2401808
  1.355040e+00   4.390990e-07   1.840258e-03   2.816480e-10   2428442
  1.361418e+00   4.393091e-07   1.842645e-03   2.802617e-10   2454752
  1.367798e+00   4.392907e-07   1.841270e-03   2.793497e-10   2475872
  1.374172e+00   4.400387e-07   1.838763e-03   2.786861e-10   2495822
  1.380543e+00   4.406136e-07   1.839940e-03   2.773830e-10   2520248
  1.386922e+00   4.409253e-07   1.844043e-03   2.765553e-10   2549186
  1.393299e+00   4.421909e-07   1.837661e-03   2.758758e-10   2564768
  1.399672e+00   4.431817e-07   1.841284e-03   2.756114e-10   2592968
  1.406054e+00   4.430316e-07   1.843378e-03   2.742653e-10   2619818
  1.412431e+00   4.444147e-07   1.838027e-03   2.741754e-10   2636384
  1.418803e+00   4.441318e-07   1.840293e-03   2.726120e-10   2662220
  1.425180e+00   4.450787e-07   1.842524e-03   2.714803e-10   2689770
  1.431560e+00   4.456971e-07   1.840994e-03   2.706475e-10   2712296
  1.437933e+00   4.458358e-07   1.838431e-03   2.697688e-10   2732618
  1.444312e+00   4.461155e-07   1.843932e-03   2.681022e-10   2765264
  1.450695e+00   4.475824e-07   1.840894e-03   2.681520e-10   2784824
  1.457066e+00   4.474772e-07   1.837138e-03   2.669444e-10   2804162
  1.463445e+00   4.486320e-07   1.844971e-03   2.660779e-10   2840612
  1.469825e+00   4.488544e-07   1.839130e-03   2.658192e-10   2855576
  1.476198e+00   4.485909e-07   1.840533e-03   2.641779e-10   2883458
  1.482571e+00   4.498695e-07   1.838217e-03   2.640944e-10   2904128
  1.488946e+00   4.502751e-07   1.843378e-03   2.629003e-10   2937026
  1.495325e+00   4.506636e-07   1.839218e-03   2.620470e-10   2956976
  1.501703e+00   4.507986e-07   1.841967e-03   2.608046e-10   2986472
  1.508082e+00   4.518069e-07   1.840166e-03   2.604165e-10   3008918
  1.514460e+00   4.515298e-07   1.841773e-03   2.590763e-10   3036752
  1.520836e+00   4.526334e-07   1.839884e-03   2.588066e-10   3058376
  1.527209e+00   4.533356e-07   1.839616e-03   2.581005e-10   3084210
  1.533583e+00   4.532993e-07   1.840948e-03   2.568021e-10   3111848
  1.539960e+00   4.537943e-07   1.841348e-03   2.560315e-10   3138890
  1.546339e+00   4.541110e-07   1.840626e-03   2.556312e-10   3164516
  1.552719e+00   4.544737e-07   1.842638e-03   2.541495e-10   3192656
  1.559097e+00   4.545575e-07   1.840555e-03   2.533882e-10   3215618
  1.565473e+00   4.551930e-07   1.840732e-03   2.528429e-10   3242888
  1.571846e+00   4.556907e-07   1.839114e-03   2.519131e-10   3265448
  1.578224e+00   4.559478e-07   1.843575e-03   2.510642e-10   3300842
  1.584604e+00   4.558732e-07   1.839884e-03   2.502654e-10   3321008
  1.590977e+00   4.562009e-07   1.839336e-03   2.495867e-10   3346406
  1.597352e+00   4.565247e-07   1.841596e-03   2.483553e-10   3377984
  1.603728e+00   4.569831e-07   1.839551e-03   2.475096e-10   3400352
  1.610103e+00   4.580244e-07   1.841321e-03   2.472628e-10   3431450
  1.616483e+00   4.576083e-07   1.841519e-03   2.458760e-10   3458768
  1.622859e+00   4.579268e-07   1.841183e-03   2.453179e-10   3484088
  1.629231e+00   4.589367e-07   1.838425e-03   2.450563e-10   3508218
  1.635610e+00   4.589101e-07   1.843946e-03   2.439281e-10   3545924
  1.641992e+00   4.588165e-07   1.841053e-03   2.431219e-10   3567530
  1.648369e+00   4.594346e-07   1.840183e-03   2.423067e-10   3595040
  1.654744e+00   4.599975e-07   1.840167e-03   2.420398e-10   3621176
  1.661115e+00   4.596457e-07   1.839521e-03   2.404878e-10   3647738
  1.667490e+00   4.601523e-07   1.841438e-03   2.396830e-10   3680480
  1.673870e+00   4.600945e-07   1.842082e-03   2.389939e-10   3709712
  1.680248e+00   4.605338e-07   1.840008e-03   2.383558e-10   3734702
  1.686623e+00   4.603575e-07   1.840362e-03   2.372325e-10   3762776
  1.692996e+00   4.605635e-07   1.839854e-03   2.368945e-10   3790514
  1.699371e+00   4.608783e-07   1.839908e-03   2.358279e-10   3820352
  1.705752e+00   4.610961e-07   1.844068e-03   2.348521e-10   3856016
  1.712131e+00   4.614445e-07   1.839690e-03   2.347199e-10   3876818
  1.718506e+00   4.619433e-07   1.839874e-03   2.336524e-10   3906332
  1.724882e+00   4.620024e-07   1.841963e-03   2.328274e-10   3938216
  1.731260e+00   4.614041e-07   1.840685e-03   2.317314e-10   3966354
  1.737636e+00   4.616673e-07   1.839695e-03   2.310437e-10   3993536
  1.744011e+00   4.617955e-07   1.840344e-03   2.304930e-10   4024034
  1.750392e+00   4.626151e-07   1.843071e-03   2.296251e-10   4060208
  1.756773e+00   4.616872e-07   1.840812e-03   2.284884e-10   4083632
  1.763145e+00   4.629983e-07   1.837811e-03   2.286881e-10   4107062
  1.769521e+00   4.622564e-07   1.842771e-03   2.269620e-10   4148072
  1.775893e+00   4.624364e-07   1.836707e-03   2.267301e-10   4163456
  1.782267e+00   4.624777e-07   1.842476e-03   2.253791e-10   4207994
  1.788652e+00   4.624617e-07   1.843367e-03   2.247556e-10   4239152
  1.795029e+00   4.628950e-07   1.839132e-03   2.244892e-10   4259426
  1.801407e+00   4.627375e-07   1.842524e-03   2.232499e-10   4299488
  1.807788e+00   4.631474e-07   1.840660e-03   2.226609e-10   4323692
  1.814162e+00   4.627648e-07   1.840093e-03   2.220601e-10   4353242
  1.820541e+00   4.633972e-07   1.841694e-03   2.211825e-10   4388792
