# power spectrum of delta for cdm
# redshift z=48.519767
# k              Pk             sigma(k)       sigma(Pk)      count
  5.011399e-03   4.395555e-08   7.667927e-04   8.308882e-09   18
  1.037418e-02   9.930291e-07   1.725047e-03   1.137097e-07   128
  1.616528e-02   4.246641e-06   1.646572e-03   2.391475e-07   314
  2.269071e-02   1.002743e-05   1.954354e-03   3.879911e-07   728
  2.897169e-02   1.908024e-05   1.717946e-03   6.406119e-07   1016
  3.518826e-02   2.641340e-05   1.880676e-03   6.513268e-07   1682
  4.169479e-02   3.953307e-05   1.831736e-03   8.329277e-07   2300
  4.790974e-02   5.015898e-05   1.770731e-03   9.424699e-07   2906
  5.429022e-02   6.751538e-05   1.892687e-03   1.113356e-06   4040
  6.068098e-02   8.677183e-05   1.775551e-03   1.310492e-06   4712
  6.698900e-02   1.106379e-04   1.857705e-03   1.422912e-06   6002
  7.346135e-02   1.306281e-04   1.857594e-03   1.551974e-06   7256
  7.977379e-02   1.546093e-04   1.772571e-03   1.745193e-06   8120
  8.609019e-02   1.692091e-04   1.864951e-03   1.697478e-06   9950
  9.253636e-02   1.859957e-04   1.853578e-03   1.719470e-06   11384
  9.885187e-02   1.977711e-04   1.809244e-03   1.777393e-06   12666
  1.052712e-01   2.175044e-04   1.889168e-03   1.744068e-06   15104
  1.117654e-01   2.400057e-04   1.850532e-03   1.884130e-06   16616
  1.180754e-01   2.727556e-04   1.799489e-03   2.047696e-06   18026
  1.244216e-01   2.993369e-04   1.853405e-03   2.051288e-06   20696
  1.308065e-01   3.248177e-04   1.827918e-03   2.185340e-06   22436
  1.371558e-01   3.563918e-04   1.845873e-03   2.276204e-06   24962
  1.435394e-01   3.729634e-04   1.831283e-03   2.237646e-06   27176
  1.499133e-01   3.841263e-04   1.847268e-03   2.235147e-06   29810
  1.562775e-01   3.992092e-04   1.828450e-03   2.255209e-06   32120
  1.626776e-01   4.129079e-04   1.865216e-03   2.199816e-06   35432
  1.690383e-01   4.396805e-04   1.814577e-03   2.281515e-06   37238
  1.754019e-01   4.650699e-04   1.856016e-03   2.295570e-06   41072
  1.817869e-01   4.893903e-04   1.834293e-03   2.371812e-06   43472
  1.881565e-01   5.241413e-04   1.848176e-03   2.423655e-06   47042
  1.945298e-01   5.592583e-04   1.829223e-03   2.534215e-06   49712
  2.008693e-01   5.794888e-04   1.840592e-03   2.535558e-06   53226
  2.072637e-01   5.865871e-04   1.853753e-03   2.443202e-06   57320
  2.136558e-01   6.072515e-04   1.831629e-03   2.488214e-06   60092
  2.200056e-01   6.246361e-04   1.839426e-03   2.477529e-06   63914
  2.263950e-01   6.379196e-04   1.849752e-03   2.433125e-06   68192
  2.327751e-01   6.594341e-04   1.833934e-03   2.472691e-06   71336
  2.391397e-01   6.804748e-04   1.845607e-03   2.471741e-06   75818
  2.455297e-01   7.059030e-04   1.844019e-03   2.505456e-06   79880
  2.518964e-01   7.360022e-04   1.834462e-03   2.539630e-06   83642
  2.582661e-01   7.654540e-04   1.840779e-03   2.569775e-06   88316
  2.646730e-01   7.844082e-04   1.859422e-03   2.573885e-06   93488
  2.710484e-01   8.011758e-04   1.827184e-03   2.578917e-06   96458
  2.773871e-01   8.181687e-04   1.829038e-03   2.605737e-06   101264
  2.837816e-01   8.314061e-04   1.862873e-03   2.527929e-06   107696
  2.901819e-01   8.423196e-04   1.837217e-03   2.527088e-06   111170
  2.965233e-01   8.729444e-04   1.822285e-03   2.567962e-06   115232
  3.028941e-01   8.904808e-04   1.855375e-03   2.547515e-06   122310
  3.093019e-01   9.104981e-04   1.843350e-03   2.556878e-06   126944
  3.156739e-01   9.384778e-04   1.828600e-03   2.592997e-06   131192
  3.220432e-01   9.603738e-04   1.844535e-03   2.604203e-06   137618
  3.284234e-01   9.808155e-04   1.836674e-03   2.595803e-06   142448
  3.347979e-01   9.926105e-04   1.844704e-03   2.569761e-06   148520
  3.411627e-01   1.012425e-03   1.831436e-03   2.606461e-06   153254
  3.475446e-01   1.032177e-03   1.852010e-03   2.584248e-06   160760
  3.539284e-01   1.035356e-03   1.835751e-03   2.529693e-06   165290
  3.603019e-01   1.061881e-03   1.840148e-03   2.565306e-06   171992
  3.666828e-01   1.080154e-03   1.840217e-03   2.572336e-06   177800
  3.730569e-01   1.102684e-03   1.843032e-03   2.576760e-06   184322
  3.794439e-01   1.120789e-03   1.841595e-03   2.577048e-06   190832
  3.858239e-01   1.137776e-03   1.839260e-03   2.584566e-06   196772
  3.921872e-01   1.161698e-03   1.836453e-03   2.586410e-06   202970
  3.985536e-01   1.181933e-03   1.839266e-03   2.581894e-06   210056
  4.049173e-01   1.199379e-03   1.832832e-03   2.580305e-06   216210
  4.112896e-01   1.214202e-03   1.841640e-03   2.559087e-06   224168
  4.176700e-01   1.222081e-03   1.840761e-03   2.556459e-06   230792
  4.240565e-01   1.247999e-03   1.846256e-03   2.559874e-06   238778
  4.304312e-01   1.254804e-03   1.831772e-03   2.538259e-06   243956
  4.367939e-01   1.280707e-03   1.845141e-03   2.547970e-06   252680
  4.431746e-01   1.296164e-03   1.842020e-03   2.545605e-06   260066
  4.495713e-01   1.314613e-03   1.849294e-03   2.536219e-06   268712
  4.559494e-01   1.336196e-03   1.834336e-03   2.551933e-06   274034
  4.623270e-01   1.340155e-03   1.847366e-03   2.519651e-06   283904
  4.687088e-01   1.359779e-03   1.837425e-03   2.521818e-06   290048
  4.750707e-01   1.371605e-03   1.836659e-03   2.524421e-06   297950
  4.814434e-01   1.391670e-03   1.842026e-03   2.529961e-06   306968
  4.878269e-01   1.417220e-03   1.843240e-03   2.530392e-06   315320
  4.942006e-01   1.418503e-03   1.835899e-03   2.497670e-06   322346
  5.005701e-01   1.438882e-03   1.842589e-03   2.493409e-06   331664
  5.069538e-01   1.451038e-03   1.844896e-03   2.480667e-06   340818
  5.133346e-01   1.477423e-03   1.837322e-03   2.504282e-06   348164
  5.197083e-01   1.488802e-03   1.843548e-03   2.489390e-06   357584
  5.260929e-01   1.503014e-03   1.846059e-03   2.475317e-06   367106
  5.324635e-01   1.517861e-03   1.832285e-03   2.478027e-06   373376
  5.388350e-01   1.529193e-03   1.848023e-03   2.456968e-06   385376
  5.452233e-01   1.547962e-03   1.842356e-03   2.466065e-06   393650
  5.516038e-01   1.557265e-03   1.840588e-03   2.452134e-06   402704
  5.579656e-01   1.571845e-03   1.830970e-03   2.456946e-06   409910
  5.643320e-01   1.591647e-03   1.843407e-03   2.459174e-06   422024
  5.707212e-01   1.599907e-03   1.846526e-03   2.428445e-06   432176
  5.771022e-01   1.618465e-03   1.837404e-03   2.446465e-06   440066
  5.834769e-01   1.635710e-03   1.841263e-03   2.433246e-06   450680
  5.898365e-01   1.646220e-03   1.831084e-03   2.434513e-06   457856
  5.962115e-01   1.666754e-03   1.848347e-03   2.416275e-06   472538
  6.026013e-01   1.683366e-03   1.839689e-03   2.434166e-06   480140
  6.089752e-01   1.690172e-03   1.841279e-03   2.417617e-06   490842
  6.153517e-01   1.708311e-03   1.838382e-03   2.415935e-06   500744
  6.217295e-01   1.719565e-03   1.842392e-03   2.404486e-06   511856
  6.281145e-01   1.734149e-03   1.844734e-03   2.400734e-06   523202
  6.344991e-01   1.747774e-03   1.840396e-03   2.401234e-06   532688
  6.408638e-01   1.762251e-03   1.834541e-03   2.410116e-06   541520
  6.472341e-01   1.774676e-03   1.842653e-03   2.388687e-06   555110
  6.536136e-01   1.789643e-03   1.839126e-03   2.378470e-06   564944
  6.599884e-01   1.794866e-03   1.839832e-03   2.372221e-06   576434
  6.663740e-01   1.810840e-03   1.844405e-03   2.362843e-06   588848
  6.727501e-01   1.826684e-03   1.838623e-03   2.366049e-06   597704
  6.791236e-01   1.837067e-03   1.842386e-03   2.354194e-06   610946
  6.855006e-01   1.854044e-03   1.837794e-03   2.355954e-06   620852
  6.918722e-01   1.863782e-03   1.841901e-03   2.347800e-06   633530
  6.982524e-01   1.874689e-03   1.841844e-03   2.338856e-06   645704
  7.046316e-01   1.888354e-03   1.840565e-03   2.339769e-06   656744
  7.110074e-01   1.904805e-03   1.841941e-03   2.328230e-06   669162
  7.173906e-01   1.918674e-03   1.843286e-03   2.322446e-06   681992
  7.237681e-01   1.926663e-03   1.838959e-03   2.323678e-06   692360
  7.301485e-01   1.938411e-03   1.844364e-03   2.311998e-06   707006
  7.365206e-01   1.950642e-03   1.834135e-03   2.310033e-06   714944
  7.428835e-01   1.970745e-03   1.841775e-03   2.306374e-06   730346
  7.492606e-01   1.979359e-03   1.838962e-03   2.303966e-06   742616
  7.556415e-01   1.992436e-03   1.843530e-03   2.290543e-06   756536
  7.620128e-01   1.999155e-03   1.836595e-03   2.288686e-06   766418
  7.683917e-01   2.010576e-03   1.845753e-03   2.272389e-06   783392
  7.747614e-01   2.024191e-03   1.833632e-03   2.284293e-06   790412
  7.811334e-01   2.035916e-03   1.848120e-03   2.262875e-06   810314
  7.875277e-01   2.050019e-03   1.843702e-03   2.261975e-06   821960
  7.938987e-01   2.064360e-03   1.834976e-03   2.262444e-06   831266
  8.002712e-01   2.066275e-03   1.843706e-03   2.246358e-06   848960
  8.066557e-01   2.079971e-03   1.842629e-03   2.245097e-06   861488
  8.130204e-01   2.092104e-03   1.833334e-03   2.250531e-06   871194
  8.193985e-01   2.103184e-03   1.847247e-03   2.227002e-06   891788
  8.257796e-01   2.115903e-03   1.838008e-03   2.232484e-06   900416
  8.321422e-01   2.131752e-03   1.836250e-03   2.228136e-06   914306
  8.385264e-01   2.136744e-03   1.847988e-03   2.213152e-06   933992
  8.449011e-01   2.146404e-03   1.834294e-03   2.216176e-06   940826
  8.512701e-01   2.163261e-03   1.842364e-03   2.218188e-06   960224
  8.576621e-01   2.170832e-03   1.846556e-03   2.199459e-06   976316
  8.640381e-01   2.177960e-03   1.835724e-03   2.191594e-06   985010
  8.704114e-01   2.191024e-03   1.843336e-03   2.189340e-06   1004024
  8.767898e-01   2.195115e-03   1.839706e-03   2.186585e-06   1016288
  8.831639e-01   2.215762e-03   1.840690e-03   2.182317e-06   1032290
  8.895470e-01   2.222786e-03   1.843156e-03   2.174483e-06   1048640
  8.959130e-01   2.228025e-03   1.831919e-03   2.169962e-06   1057250
  9.022937e-01   2.248296e-03   1.849588e-03   2.162565e-06   1083140
  9.086870e-01   2.258722e-03   1.840763e-03   2.168449e-06   1092248
  9.150555e-01   2.262787e-03   1.837510e-03   2.155788e-06   1105914
  9.214310e-01   2.271985e-03   1.841822e-03   2.141386e-06   1124744
  9.278120e-01   2.285290e-03   1.841202e-03   2.145741e-06   1139120
  9.341841e-01   2.297446e-03   1.838536e-03   2.137479e-06   1153490
  9.405650e-01   2.303549e-03   1.844187e-03   2.130272e-06   1172936
  9.469357e-01   2.317043e-03   1.834491e-03   2.136030e-06   1182158
  9.533110e-01   2.322589e-03   1.846126e-03   2.110257e-06   1206392
  9.596894e-01   2.329841e-03   1.835525e-03   2.112731e-06   1215224
  9.660641e-01   2.341545e-03   1.844936e-03   2.103230e-06   1237874
  9.724505e-01   2.354681e-03   1.841050e-03   2.106890e-06   1251800
  9.788233e-01   2.358114e-03   1.838619e-03   2.097194e-06   1265792
  9.851993e-01   2.377522e-03   1.843109e-03   2.102756e-06   1286306
  9.915793e-01   2.381920e-03   1.838809e-03   2.096157e-06   1299764
  9.979438e-01   2.393148e-03   1.836769e-03   2.088634e-06   1314554
  1.004319e+00   2.396842e-03   1.843595e-03   2.075734e-06   1337288
  1.010703e+00   2.409119e-03   1.840912e-03   2.072282e-06   1351304
  1.017077e+00   2.416140e-03   1.841769e-03   2.058708e-06   1369026
  1.023461e+00   2.425297e-03   1.843478e-03   2.059650e-06   1388456
  1.029842e+00   2.437922e-03   1.840406e-03   2.065940e-06   1402700
  1.036211e+00   2.444643e-03   1.837802e-03   2.057681e-06   1418282
  1.042587e+00   2.455656e-03   1.843596e-03   2.049267e-06   1440272
  1.048964e+00   2.463988e-03   1.838705e-03   2.045908e-06   1454114
  1.055341e+00   2.469866e-03   1.842603e-03   2.033786e-06   1475480
  1.061720e+00   2.483320e-03   1.840520e-03   2.033793e-06   1490936
  1.068091e+00   2.485634e-03   1.838519e-03   2.026544e-06   1507826
  1.074472e+00   2.498990e-03   1.844275e-03   2.027508e-06   1530764
  1.080850e+00   2.502554e-03   1.839052e-03   2.014301e-06   1543424
  1.087222e+00   2.517916e-03   1.841688e-03   2.016017e-06   1564946
  1.093594e+00   2.525904e-03   1.835875e-03   2.009449e-06   1578536
  1.099970e+00   2.532748e-03   1.845670e-03   2.000353e-06   1604882
  1.106358e+00   2.541695e-03   1.842454e-03   1.999082e-06   1621304
  1.112736e+00   2.546228e-03   1.839545e-03   1.998250e-06   1637024
  1.119103e+00   2.558465e-03   1.837794e-03   1.995484e-06   1654134
  1.125480e+00   2.565888e-03   1.844256e-03   1.984557e-06   1679168
  1.131864e+00   2.573814e-03   1.841903e-03   1.977609e-06   1695944
  1.138235e+00   2.584592e-03   1.836568e-03   1.978000e-06   1710602
  1.144612e+00   2.592453e-03   1.844777e-03   1.971748e-06   1737056
  1.150994e+00   2.600632e-03   1.840390e-03   1.967847e-06   1752602
  1.157370e+00   2.603438e-03   1.839227e-03   1.960395e-06   1772024
  1.163752e+00   2.613922e-03   1.844090e-03   1.956791e-06   1795364
  1.170126e+00   2.620550e-03   1.836467e-03   1.954123e-06   1807634
  1.176490e+00   2.630598e-03   1.836183e-03   1.948276e-06   1827608
  1.182859e+00   2.636748e-03   1.840789e-03   1.941721e-06   1850984
  1.189240e+00   2.642469e-03   1.844107e-03   1.930924e-06   1874618
  1.195619e+00   2.651197e-03   1.838445e-03   1.931909e-06   1889504
  1.202001e+00   2.660201e-03   1.845373e-03   1.925443e-06   1916870
  1.208383e+00   2.663617e-03   1.838254e-03   1.921810e-06   1929728
  1.214760e+00   2.678323e-03   1.843674e-03   1.919297e-06   1955408
  1.221131e+00   2.682579e-03   1.834427e-03   1.913317e-06   1966842
  1.227503e+00   2.687902e-03   1.843005e-03   1.906369e-06   1996640
  1.233886e+00   2.697813e-03   1.842690e-03   1.907919e-06   2016392
  1.240265e+00   2.706345e-03   1.839730e-03   1.897774e-06   2034722
  1.246641e+00   2.707796e-03   1.840813e-03   1.892003e-06   2056460
  1.253014e+00   2.717807e-03   1.838931e-03   1.891225e-06   2075186
  1.259388e+00   2.725233e-03   1.840566e-03   1.887248e-06   2099096
  1.265761e+00   2.734683e-03   1.837910e-03   1.884516e-06   2116832
  1.272138e+00   2.737682e-03   1.844119e-03   1.873042e-06   2145146
  1.278526e+00   2.743072e-03   1.844128e-03   1.867532e-06   2166776
  1.284904e+00   2.753472e-03   1.838822e-03   1.867136e-06   2181848
  1.291273e+00   2.761062e-03   1.838785e-03   1.865566e-06   2203766
  1.297646e+00   2.766138e-03   1.840619e-03   1.855848e-06   2227664
  1.304025e+00   2.773021e-03   1.842381e-03   1.853369e-06   2252138
  1.310403e+00   2.776944e-03   1.839825e-03   1.848468e-06   2271152
  1.316777e+00   2.787288e-03   1.840536e-03   1.843451e-06   2293256
  1.323154e+00   2.794805e-03   1.842085e-03   1.845248e-06   2318130
  1.329536e+00   2.804330e-03   1.841956e-03   1.839519e-06   2340824
  1.335910e+00   2.805931e-03   1.838342e-03   1.833052e-06   2357990
  1.342292e+00   2.813463e-03   1.846396e-03   1.824348e-06   2391176
  1.348671e+00   2.822346e-03   1.837209e-03   1.824161e-06   2401808
  1.355040e+00   2.830585e-03   1.840258e-03   1.820333e-06   2428442
  1.361418e+00   2.833487e-03   1.842645e-03   1.812945e-06   2454752
  1.367798e+00   2.835430e-03   1.841270e-03   1.807922e-06   2475872
  1.374172e+00   2.843199e-03   1.838763e-03   1.805888e-06   2495822
  1.380543e+00   2.848877e-03   1.839940e-03   1.799227e-06   2520248
  1.386922e+00   2.853599e-03   1.844043e-03   1.795046e-06   2549186
  1.393299e+00   2.863892e-03   1.837661e-03   1.791575e-06   2564768
  1.399672e+00   2.872017e-03   1.841284e-03   1.791984e-06   2592968
  1.406054e+00   2.873562e-03   1.843378e-03   1.784704e-06   2619818
  1.412431e+00   2.885018e-03   1.838027e-03   1.785970e-06   2636384
  1.418803e+00   2.885033e-03   1.840293e-03   1.776474e-06   2662220
  1.425180e+00   2.894611e-03   1.842524e-03   1.771344e-06   2689770
  1.431560e+00   2.899552e-03   1.840994e-03   1.766123e-06   2712296
  1.437933e+00   2.903151e-03   1.838431e-03   1.761985e-06   2732618
  1.444312e+00   2.908254e-03   1.843932e-03   1.753823e-06   2765264
  1.450695e+00   2.920127e-03   1.840894e-03   1.755938e-06   2784824
  1.457066e+00   2.921713e-03   1.837138e-03   1.748838e-06   2804162
  1.463445e+00   2.931003e-03   1.844971e-03   1.744193e-06   2840612
  1.469825e+00   2.936520e-03   1.839130e-03   1.745028e-06   2855576
  1.476198e+00   2.936139e-03   1.840533e-03   1.735233e-06   2883458
  1.482571e+00   2.946844e-03   1.838217e-03   1.736374e-06   2904128
  1.488946e+00   2.952445e-03   1.843378e-03   1.730608e-06   2937026
  1.495325e+00   2.957295e-03   1.839218e-03   1.725476e-06   2956976
  1.501703e+00   2.960508e-03   1.841967e-03   1.719705e-06   2986472
  1.508082e+00   2.970052e-03   1.840166e-03   1.719255e-06   3008918
  1.514460e+00   2.970134e-03   1.841773e-03   1.711178e-06   3036752
  1.520836e+00   2.980042e-03   1.839884e-03   1.710202e-06   3058376
  1.527209e+00   2.987590e-03   1.839616e-03   1.708662e-06   3084210
  1.533583e+00   2.989828e-03   1.840948e-03   1.701536e-06   3111848
  1.539960e+00   2.995337e-03   1.841348e-03   1.696780e-06   3138890
  1.546339e+00   3.000947e-03   1.840626e-03   1.697098e-06   3164516
  1.552719e+00   3.005441e-03   1.842638e-03   1.687989e-06   3192656
  1.559097e+00   3.009006e-03   1.840555e-03   1.684197e-06   3215618
  1.565473e+00   3.015940e-03   1.840732e-03   1.682888e-06   3242888
  1.571846e+00   3.021623e-03   1.839114e-03   1.678288e-06   3265448
  1.578224e+00   3.026900e-03   1.843575e-03   1.674987e-06   3300842
  1.584604e+00   3.028413e-03   1.839884e-03   1.671192e-06   3321008
  1.590977e+00   3.032529e-03   1.839336e-03   1.666495e-06   3346406
  1.597352e+00   3.038464e-03   1.841596e-03   1.661139e-06   3377984
  1.603728e+00   3.043691e-03   1.839551e-03   1.656773e-06   3400352
  1.610103e+00   3.054285e-03   1.841321e-03   1.657198e-06   3431450
  1.616483e+00   3.053610e-03   1.841519e-03   1.649216e-06   3458768
  1.622859e+00   3.058394e-03   1.841183e-03   1.647601e-06   3484088
  1.629231e+00   3.068941e-03   1.838425e-03   1.648419e-06   3508218
  1.635610e+00   3.070936e-03   1.843946e-03   1.641418e-06   3545924
  1.641992e+00   3.072719e-03   1.841053e-03   1.637216e-06   3567530
  1.648369e+00   3.079689e-03   1.840183e-03   1.633847e-06   3595040
  1.654744e+00   3.086076e-03   1.840167e-03   1.632551e-06   3621176
  1.661115e+00   3.087820e-03   1.839521e-03   1.625181e-06   3647738
  1.667490e+00   3.093960e-03   1.841438e-03   1.621603e-06   3680480
  1.673870e+00   3.096153e-03   1.842082e-03   1.618389e-06   3709712
  1.680248e+00   3.101965e-03   1.840008e-03   1.615248e-06   3734702
  1.686623e+00   3.104255e-03   1.840362e-03   1.609304e-06   3762776
  1.692996e+00   3.108611e-03   1.839854e-03   1.609120e-06   3790514
  1.699371e+00   3.112950e-03   1.839908e-03   1.602663e-06   3820352
  1.705752e+00   3.117500e-03   1.844068e-03   1.598128e-06   3856016
  1.712131e+00   3.124316e-03   1.839690e-03   1.599693e-06   3876818
  1.718506e+00   3.130149e-03   1.839874e-03   1.595053e-06   3906332
  1.724882e+00   3.132274e-03   1.841963e-03   1.589884e-06   3938216
  1.731260e+00   3.133451e-03   1.840685e-03   1.584736e-06   3966354
  1.737636e+00   3.136801e-03   1.839695e-03   1.580910e-06   3993536
  1.744011e+00   3.141284e-03   1.840344e-03   1.579613e-06   4024034
  1.750392e+00   3.149089e-03   1.843071e-03   1.574546e-06   4060208
  1.756773e+00   3.148596e-03   1.840812e-03   1.570527e-06   4083632
  1.763145e+00   3.158041e-03   1.837811e-03   1.571106e-06   4107062
  1.769521e+00   3.156579e-03   1.842771e-03   1.560735e-06   4148072
  1.775893e+00   3.160998e-03   1.836707e-03   1.561788e-06   4163456
  1.782267e+00   3.165448e-03   1.842476e-03   1.555028e-06   4207994
  1.788652e+00   3.167609e-03   1.843367e-03   1.551397e-06   4239152
  1.795029e+00   3.175162e-03   1.839132e-03   1.552658e-06   4259426
  1.801407e+00   3.177370e-03   1.842524e-03   1.545659e-06   4299488
  1.807788e+00   3.182755e-03   1.840660e-03   1.542894e-06   4323692
  1.814162e+00   3.182561e-03   1.840093e-03   1.539816e-06   4353242
  1.820541e+00   3.191755e-03   1.841694e-03   1.536294e-06   4388792
