# power spectrum of T00 for cdm
# redshift z=5.988045
# k              Pk             sigma(k)       sigma(Pk)      count
  5.011399e-03   1.806188e-02   7.667927e-04   3.528484e-03   18
  1.037418e-02   5.146183e-01   1.725047e-03   5.949273e-02   128
  1.616528e-02   2.291978e+00   1.646572e-03   1.294531e-01   314
  2.269071e-02   5.502452e+00   1.954354e-03   2.134044e-01   728
  2.897169e-02   1.052260e+01   1.717946e-03   3.533952e-01   1016
  3.518826e-02   1.461671e+01   1.880676e-03   3.610821e-01   1682
  4.169479e-02   2.189738e+01   1.831736e-03   4.600111e-01   2300
  4.790974e-02   2.784628e+01   1.770731e-03   5.229937e-01   2906
  5.429022e-02   3.736715e+01   1.892687e-03   6.147877e-01   4040
  6.068098e-02   4.823580e+01   1.775551e-03   7.270857e-01   4712
  6.698900e-02   6.132418e+01   1.857705e-03   7.913127e-01   6002
  7.346135e-02   7.246415e+01   1.857594e-03   8.625724e-01   7256
  7.977379e-02   8.595077e+01   1.772571e-03   9.725919e-01   8120
  8.609019e-02   9.396023e+01   1.864951e-03   9.425406e-01   9950
  9.253636e-02   1.034008e+02   1.853578e-03   9.565945e-01   11384
  9.885187e-02   1.099781e+02   1.809244e-03   9.898868e-01   12666
  1.052712e-01   1.212334e+02   1.889168e-03   9.735343e-01   15104
  1.117654e-01   1.335592e+02   1.850532e-03   1.049318e+00   16616
  1.180754e-01   1.517425e+02   1.799489e-03   1.138121e+00   18026
  1.244216e-01   1.663140e+02   1.853405e-03   1.140282e+00   20696
  1.308065e-01   1.804528e+02   1.827918e-03   1.214061e+00   22436
  1.371558e-01   1.977800e+02   1.845873e-03   1.258380e+00   24962
  1.435394e-01   2.074707e+02   1.831283e-03   1.243245e+00   27176
  1.499133e-01   2.137806e+02   1.847268e-03   1.243371e+00   29810
  1.562775e-01   2.226374e+02   1.828450e-03   1.255336e+00   32120
  1.626776e-01   2.311467e+02   1.865216e-03   1.232391e+00   35432
  1.690383e-01   2.456102e+02   1.814577e-03   1.268976e+00   37238
  1.754019e-01   2.597033e+02   1.856016e-03   1.283928e+00   41072
  1.817869e-01   2.734414e+02   1.834293e-03   1.325056e+00   43472
  1.881565e-01   2.927159e+02   1.848176e-03   1.354504e+00   47042
  1.945298e-01   3.111801e+02   1.829223e-03   1.415097e+00   49712
  2.008693e-01   3.240882e+02   1.840592e-03   1.412797e+00   53226
  2.072637e-01   3.274899e+02   1.853753e-03   1.365781e+00   57320
  2.136558e-01   3.393147e+02   1.831629e-03   1.389786e+00   60092
  2.200056e-01   3.496880e+02   1.839426e-03   1.387904e+00   63914
  2.263950e-01   3.574766e+02   1.849752e-03   1.363575e+00   68192
  2.327751e-01   3.695881e+02   1.833934e-03   1.381629e+00   71336
  2.391397e-01   3.820312e+02   1.845607e-03   1.387293e+00   75818
  2.455297e-01   3.968717e+02   1.844019e-03   1.411238e+00   79880
  2.518964e-01   4.122996e+02   1.834462e-03   1.422429e+00   83642
  2.582661e-01   4.302682e+02   1.840779e-03   1.450052e+00   88316
  2.646730e-01   4.407570e+02   1.859422e-03   1.448123e+00   93488
  2.710484e-01   4.502941e+02   1.827184e-03   1.455085e+00   96458
  2.773871e-01   4.597066e+02   1.829038e-03   1.459422e+00   101264
  2.837816e-01   4.672001e+02   1.862873e-03   1.422644e+00   107696
  2.901819e-01   4.758196e+02   1.837217e-03   1.432244e+00   111170
  2.965233e-01   4.917573e+02   1.822285e-03   1.453985e+00   115232
  3.028941e-01   5.025075e+02   1.855375e-03   1.435330e+00   122310
  3.093019e-01   5.130353e+02   1.843350e-03   1.441696e+00   126944
  3.156739e-01   5.284018e+02   1.828600e-03   1.461773e+00   131192
  3.220432e-01   5.397675e+02   1.844535e-03   1.463710e+00   137618
  3.284234e-01   5.533320e+02   1.836674e-03   1.464385e+00   142448
  3.347979e-01   5.605133e+02   1.844704e-03   1.452849e+00   148520
  3.411627e-01   5.700413e+02   1.831436e-03   1.464009e+00   153254
  3.475446e-01   5.822261e+02   1.852010e-03   1.455310e+00   160760
  3.539284e-01   5.866824e+02   1.835751e-03   1.439801e+00   165290
  3.603019e-01   6.034722e+02   1.840148e-03   1.455067e+00   171992
  3.666828e-01   6.118902e+02   1.840217e-03   1.459101e+00   177800
  3.730569e-01   6.243284e+02   1.843032e-03   1.455912e+00   184322
  3.794439e-01   6.362254e+02   1.841595e-03   1.463165e+00   190832
  3.858239e-01   6.448132e+02   1.839260e-03   1.462422e+00   196772
  3.921872e-01   6.610041e+02   1.836453e-03   1.470457e+00   202970
  3.985536e-01   6.711419e+02   1.839266e-03   1.471538e+00   210056
  4.049173e-01   6.808747e+02   1.832832e-03   1.469122e+00   216210
  4.112896e-01   6.882762e+02   1.841640e-03   1.452560e+00   224168
  4.176700e-01   6.931899e+02   1.840761e-03   1.450509e+00   230792
  4.240565e-01   7.105462e+02   1.846256e-03   1.460876e+00   238778
  4.304312e-01   7.153230e+02   1.831772e-03   1.442884e+00   243956
  4.367939e-01   7.288911e+02   1.845141e-03   1.450211e+00   252680
  4.431746e-01   7.404754e+02   1.842020e-03   1.455786e+00   260066
  4.495713e-01   7.492179e+02   1.849294e-03   1.446138e+00   268712
  4.559494e-01   7.593689e+02   1.834336e-03   1.452198e+00   274034
  4.623270e-01   7.657396e+02   1.847366e-03   1.438790e+00   283904
  4.687088e-01   7.761927e+02   1.837425e-03   1.445325e+00   290048
  4.750707e-01   7.835032e+02   1.836659e-03   1.442494e+00   297950
  4.814434e-01   7.957489e+02   1.842026e-03   1.442657e+00   306968
  4.878269e-01   8.112045e+02   1.843240e-03   1.448185e+00   315320
  4.942006e-01   8.118925e+02   1.835899e-03   1.433117e+00   322346
  5.005701e-01   8.245231e+02   1.842589e-03   1.430048e+00   331664
  5.069538e-01   8.326797e+02   1.844896e-03   1.425640e+00   340818
  5.133346e-01   8.457647e+02   1.837322e-03   1.436192e+00   348164
  5.197083e-01   8.552498e+02   1.843548e-03   1.434516e+00   357584
  5.260929e-01   8.653315e+02   1.846059e-03   1.426882e+00   367106
  5.324635e-01   8.686073e+02   1.832285e-03   1.418244e+00   373376
  5.388350e-01   8.775855e+02   1.848023e-03   1.410426e+00   385376
  5.452233e-01   8.878189e+02   1.842356e-03   1.410208e+00   393650
  5.516038e-01   8.965886e+02   1.840588e-03   1.413280e+00   402704
  5.579656e-01   9.028718e+02   1.830970e-03   1.407249e+00   409910
  5.643320e-01   9.144196e+02   1.843407e-03   1.406064e+00   422024
  5.707212e-01   9.189703e+02   1.846526e-03   1.400843e+00   432176
  5.771022e-01   9.303390e+02   1.837404e-03   1.401481e+00   440066
  5.834769e-01   9.367322e+02   1.841263e-03   1.398018e+00   450680
  5.898365e-01   9.483638e+02   1.831084e-03   1.401029e+00   457856
  5.962115e-01   9.553173e+02   1.848347e-03   1.391694e+00   472538
  6.026013e-01   9.666826e+02   1.839689e-03   1.393362e+00   480140
  6.089752e-01   9.720479e+02   1.841279e-03   1.389677e+00   490842
  6.153517e-01   9.837809e+02   1.838382e-03   1.391656e+00   500744
  6.217295e-01   9.882285e+02   1.842392e-03   1.383381e+00   511856
  6.281145e-01   9.987107e+02   1.844734e-03   1.379679e+00   523202
  6.344991e-01   1.008963e+03   1.840396e-03   1.387892e+00   532688
  6.408638e-01   1.015788e+03   1.834541e-03   1.380388e+00   541520
  6.472341e-01   1.023839e+03   1.842653e-03   1.379493e+00   555110
  6.536136e-01   1.027908e+03   1.839126e-03   1.361931e+00   564944
  6.599884e-01   1.036501e+03   1.839832e-03   1.370339e+00   576434
  6.663740e-01   1.044556e+03   1.844405e-03   1.364830e+00   588848
  6.727501e-01   1.051187e+03   1.838623e-03   1.362164e+00   597704
  6.791236e-01   1.062684e+03   1.842386e-03   1.367247e+00   610946
  6.855006e-01   1.070703e+03   1.837794e-03   1.358538e+00   620852
  6.918722e-01   1.074200e+03   1.841901e-03   1.357343e+00   633530
  6.982524e-01   1.082348e+03   1.841844e-03   1.348730e+00   645704
  7.046316e-01   1.092065e+03   1.840565e-03   1.343819e+00   656744
  7.110074e-01   1.096553e+03   1.841941e-03   1.345726e+00   669162
  7.173906e-01   1.105932e+03   1.843286e-03   1.335322e+00   681992
  7.237681e-01   1.110465e+03   1.838959e-03   1.339764e+00   692360
  7.301485e-01   1.121265e+03   1.844364e-03   1.333930e+00   707006
  7.365206e-01   1.127943e+03   1.834135e-03   1.331667e+00   714944
  7.428835e-01   1.136574e+03   1.841775e-03   1.329221e+00   730346
  7.492606e-01   1.143574e+03   1.838962e-03   1.329254e+00   742616
  7.556415e-01   1.149413e+03   1.843530e-03   1.325120e+00   756536
  7.620128e-01   1.157469e+03   1.836595e-03   1.319276e+00   766418
  7.683917e-01   1.162406e+03   1.845753e-03   1.313417e+00   783392
  7.747614e-01   1.173195e+03   1.833632e-03   1.319774e+00   790412
  7.811334e-01   1.176156e+03   1.848120e-03   1.306500e+00   810314
  7.875277e-01   1.182609e+03   1.843702e-03   1.306169e+00   821960
  7.938987e-01   1.191224e+03   1.834976e-03   1.308819e+00   831266
  8.002712e-01   1.193152e+03   1.843706e-03   1.298780e+00   848960
  8.066557e-01   1.201567e+03   1.842629e-03   1.296604e+00   861488
  8.130204e-01   1.208606e+03   1.833334e-03   1.300654e+00   871194
  8.193985e-01   1.214202e+03   1.847247e-03   1.286532e+00   891788
  8.257796e-01   1.218227e+03   1.838008e-03   1.285636e+00   900416
  8.321422e-01   1.227950e+03   1.836250e-03   1.285692e+00   914306
  8.385264e-01   1.234037e+03   1.847988e-03   1.280219e+00   933992
  8.449011e-01   1.239503e+03   1.834294e-03   1.282610e+00   940826
  8.512701e-01   1.247326e+03   1.842364e-03   1.275502e+00   960224
  8.576621e-01   1.251504e+03   1.846556e-03   1.272714e+00   976316
  8.640381e-01   1.258433e+03   1.835724e-03   1.269158e+00   985010
  8.704114e-01   1.267239e+03   1.843336e-03   1.268733e+00   1004024
  8.767898e-01   1.271013e+03   1.839706e-03   1.264239e+00   1016288
  8.831639e-01   1.278074e+03   1.840690e-03   1.263969e+00   1032290
  8.895470e-01   1.282179e+03   1.843156e-03   1.255043e+00   1048640
  8.959130e-01   1.287511e+03   1.831919e-03   1.251802e+00   1057250
  9.022937e-01   1.294237e+03   1.849588e-03   1.247952e+00   1083140
  9.086870e-01   1.299641e+03   1.840763e-03   1.247547e+00   1092248
  9.150555e-01   1.304435e+03   1.837510e-03   1.244248e+00   1105914
  9.214310e-01   1.309143e+03   1.841822e-03   1.239476e+00   1124744
  9.278120e-01   1.317177e+03   1.841202e-03   1.235155e+00   1139120
  9.341841e-01   1.320607e+03   1.838536e-03   1.232547e+00   1153490
  9.405650e-01   1.327924e+03   1.844187e-03   1.230269e+00   1172936
  9.469357e-01   1.335413e+03   1.834491e-03   1.235680e+00   1182158
  9.533110e-01   1.339485e+03   1.846126e-03   1.221040e+00   1206392
  9.596894e-01   1.342025e+03   1.835525e-03   1.219141e+00   1215224
  9.660641e-01   1.347921e+03   1.844936e-03   1.214272e+00   1237874
  9.724505e-01   1.352959e+03   1.841050e-03   1.210643e+00   1251800
  9.788233e-01   1.356878e+03   1.838619e-03   1.210545e+00   1265792
  9.851993e-01   1.362015e+03   1.843109e-03   1.205458e+00   1286306
  9.915793e-01   1.366993e+03   1.838809e-03   1.204176e+00   1299764
  9.979438e-01   1.372148e+03   1.836769e-03   1.200357e+00   1314554
  1.004319e+00   1.375712e+03   1.843595e-03   1.194528e+00   1337288
  1.010703e+00   1.385380e+03   1.840912e-03   1.197245e+00   1351304
  1.017077e+00   1.388013e+03   1.841769e-03   1.189441e+00   1369026
  1.023461e+00   1.392450e+03   1.843478e-03   1.185439e+00   1388456
  1.029842e+00   1.398028e+03   1.840406e-03   1.186152e+00   1402700
  1.036211e+00   1.402317e+03   1.837802e-03   1.181114e+00   1418282
  1.042587e+00   1.410721e+03   1.843596e-03   1.179719e+00   1440272
  1.048964e+00   1.411108e+03   1.838705e-03   1.173295e+00   1454114
  1.055341e+00   1.417008e+03   1.842603e-03   1.172103e+00   1475480
  1.061720e+00   1.426128e+03   1.840520e-03   1.171620e+00   1490936
  1.068091e+00   1.424683e+03   1.838519e-03   1.163589e+00   1507826
  1.074472e+00   1.433094e+03   1.844275e-03   1.164066e+00   1530764
  1.080850e+00   1.433815e+03   1.839052e-03   1.158958e+00   1543424
  1.087222e+00   1.439042e+03   1.841688e-03   1.155848e+00   1564946
  1.093594e+00   1.443967e+03   1.835875e-03   1.156134e+00   1578536
  1.099970e+00   1.444173e+03   1.845670e-03   1.143385e+00   1604882
  1.106358e+00   1.448685e+03   1.842454e-03   1.143218e+00   1621304
  1.112736e+00   1.454400e+03   1.839545e-03   1.142185e+00   1637024
  1.119103e+00   1.462480e+03   1.837794e-03   1.139741e+00   1654134
  1.125480e+00   1.464504e+03   1.844256e-03   1.135495e+00   1679168
  1.131864e+00   1.466145e+03   1.841903e-03   1.130472e+00   1695944
  1.138235e+00   1.469831e+03   1.836568e-03   1.129290e+00   1710602
  1.144612e+00   1.473480e+03   1.844777e-03   1.122853e+00   1737056
  1.150994e+00   1.479871e+03   1.840390e-03   1.123668e+00   1752602
  1.157370e+00   1.482209e+03   1.839227e-03   1.118934e+00   1772024
  1.163752e+00   1.486529e+03   1.844090e-03   1.114083e+00   1795364
  1.170126e+00   1.489526e+03   1.836467e-03   1.114110e+00   1807634
  1.176490e+00   1.491555e+03   1.836183e-03   1.108291e+00   1827608
  1.182859e+00   1.499417e+03   1.840789e-03   1.111867e+00   1850984
  1.189240e+00   1.501656e+03   1.844107e-03   1.103310e+00   1874618
  1.195619e+00   1.505622e+03   1.838445e-03   1.101909e+00   1889504
  1.202001e+00   1.507966e+03   1.845373e-03   1.096657e+00   1916870
  1.208383e+00   1.508336e+03   1.838254e-03   1.093101e+00   1929728
  1.214760e+00   1.516276e+03   1.843674e-03   1.087849e+00   1955408
  1.221131e+00   1.516304e+03   1.834427e-03   1.089014e+00   1966842
  1.227503e+00   1.519024e+03   1.843005e-03   1.080777e+00   1996640
  1.233886e+00   1.521488e+03   1.842690e-03   1.076636e+00   2016392
  1.240265e+00   1.527429e+03   1.839730e-03   1.077767e+00   2034722
  1.246641e+00   1.530849e+03   1.840813e-03   1.076083e+00   2056460
  1.253014e+00   1.533348e+03   1.838931e-03   1.071567e+00   2075186
  1.259388e+00   1.533797e+03   1.840566e-03   1.067150e+00   2099096
  1.265761e+00   1.537781e+03   1.837910e-03   1.064336e+00   2116832
  1.272138e+00   1.543487e+03   1.844119e-03   1.061793e+00   2145146
  1.278526e+00   1.543412e+03   1.844128e-03   1.058129e+00   2166776
  1.284904e+00   1.547465e+03   1.838822e-03   1.054988e+00   2181848
  1.291273e+00   1.553617e+03   1.838785e-03   1.055080e+00   2203766
  1.297646e+00   1.554384e+03   1.840619e-03   1.050594e+00   2227664
  1.304025e+00   1.553111e+03   1.842381e-03   1.042184e+00   2252138
  1.310403e+00   1.557580e+03   1.839825e-03   1.044059e+00   2271152
  1.316777e+00   1.561141e+03   1.840536e-03   1.039926e+00   2293256
  1.323154e+00   1.562121e+03   1.842085e-03   1.034666e+00   2318130
  1.329536e+00   1.566844e+03   1.841956e-03   1.032617e+00   2340824
  1.335910e+00   1.570523e+03   1.838342e-03   1.030058e+00   2357990
  1.342292e+00   1.570683e+03   1.846396e-03   1.025568e+00   2391176
  1.348671e+00   1.573532e+03   1.837209e-03   1.026021e+00   2401808
  1.355040e+00   1.578995e+03   1.840258e-03   1.020563e+00   2428442
  1.361418e+00   1.580777e+03   1.842645e-03   1.017289e+00   2454752
  1.367798e+00   1.581133e+03   1.841270e-03   1.014477e+00   2475872
  1.374172e+00   1.584013e+03   1.838763e-03   1.012248e+00   2495822
  1.380543e+00   1.586906e+03   1.839940e-03   1.010556e+00   2520248
  1.386922e+00   1.585915e+03   1.844043e-03   1.003365e+00   2549186
  1.393299e+00   1.591215e+03   1.837661e-03   1.003042e+00   2564768
  1.399672e+00   1.592978e+03   1.841284e-03   9.996130e-01   2592968
  1.406054e+00   1.594118e+03   1.843378e-03   9.954316e-01   2619818
  1.412431e+00   1.597441e+03   1.838027e-03   9.948973e-01   2636384
  1.418803e+00   1.599199e+03   1.840293e-03   9.906351e-01   2662220
  1.425180e+00   1.602153e+03   1.842524e-03   9.889202e-01   2689770
  1.431560e+00   1.604293e+03   1.840994e-03   9.874512e-01   2712296
  1.437933e+00   1.604624e+03   1.838431e-03   9.830188e-01   2732618
  1.444312e+00   1.606017e+03   1.843932e-03   9.762906e-01   2765264
  1.450695e+00   1.607363e+03   1.840894e-03   9.754974e-01   2784824
  1.457066e+00   1.610755e+03   1.837138e-03   9.749349e-01   2804162
  1.463445e+00   1.611263e+03   1.844971e-03   9.682202e-01   2840612
  1.469825e+00   1.613961e+03   1.839130e-03   9.695884e-01   2855576
  1.476198e+00   1.616020e+03   1.840533e-03   9.641677e-01   2883458
  1.482571e+00   1.616696e+03   1.838217e-03   9.623206e-01   2904128
  1.488946e+00   1.618386e+03   1.843378e-03   9.565673e-01   2937026
  1.495325e+00   1.620340e+03   1.839218e-03   9.553664e-01   2956976
  1.501703e+00   1.622374e+03   1.841967e-03   9.526615e-01   2986472
  1.508082e+00   1.624956e+03   1.840166e-03   9.491866e-01   3008918
  1.514460e+00   1.627186e+03   1.841773e-03   9.480989e-01   3036752
  1.520836e+00   1.625451e+03   1.839884e-03   9.434410e-01   3058376
  1.527209e+00   1.628142e+03   1.839616e-03   9.394386e-01   3084210
  1.533583e+00   1.629862e+03   1.840948e-03   9.388049e-01   3111848
  1.539960e+00   1.631067e+03   1.841348e-03   9.350390e-01   3138890
  1.546339e+00   1.634502e+03   1.840626e-03   9.331521e-01   3164516
  1.552719e+00   1.633550e+03   1.842638e-03   9.278865e-01   3192656
  1.559097e+00   1.636722e+03   1.840555e-03   9.284403e-01   3215618
  1.565473e+00   1.637345e+03   1.840732e-03   9.240891e-01   3242888
  1.571846e+00   1.637554e+03   1.839114e-03   9.215691e-01   3265448
  1.578224e+00   1.639589e+03   1.843575e-03   9.184357e-01   3300842
  1.584604e+00   1.641332e+03   1.839884e-03   9.169918e-01   3321008
  1.590977e+00   1.640421e+03   1.839336e-03   9.126411e-01   3346406
  1.597352e+00   1.642631e+03   1.841596e-03   9.109578e-01   3377984
  1.603728e+00   1.641677e+03   1.839551e-03   9.066100e-01   3400352
  1.610103e+00   1.645108e+03   1.841321e-03   9.042396e-01   3431450
  1.616483e+00   1.644842e+03   1.841519e-03   9.008113e-01   3458768
  1.622859e+00   1.647470e+03   1.841183e-03   8.995016e-01   3484088
  1.629231e+00   1.646399e+03   1.838425e-03   8.955252e-01   3508218
  1.635610e+00   1.647141e+03   1.843946e-03   8.914646e-01   3545924
  1.641992e+00   1.649115e+03   1.841053e-03   8.904165e-01   3567530
  1.648369e+00   1.651832e+03   1.840183e-03   8.883010e-01   3595040
  1.654744e+00   1.652551e+03   1.840167e-03   8.858300e-01   3621176
  1.661115e+00   1.653320e+03   1.839521e-03   8.827588e-01   3647738
  1.667490e+00   1.652879e+03   1.841438e-03   8.799591e-01   3680480
  1.673870e+00   1.653444e+03   1.842082e-03   8.775204e-01   3709712
  1.680248e+00   1.655418e+03   1.840008e-03   8.753302e-01   3734702
  1.686623e+00   1.658569e+03   1.840362e-03   8.737768e-01   3762776
  1.692996e+00   1.659221e+03   1.839854e-03   8.715018e-01   3790514
  1.699371e+00   1.656683e+03   1.839908e-03   8.670164e-01   3820352
  1.705752e+00   1.654272e+03   1.844068e-03   8.607430e-01   3856016
  1.712131e+00   1.657181e+03   1.839690e-03   8.608846e-01   3876818
  1.718506e+00   1.658695e+03   1.839874e-03   8.594172e-01   3906332
  1.724882e+00   1.659803e+03   1.841963e-03   8.571415e-01   3938216
  1.731260e+00   1.659195e+03   1.840685e-03   8.525198e-01   3966354
  1.737636e+00   1.658156e+03   1.839695e-03   8.499850e-01   3993536
  1.744011e+00   1.658642e+03   1.840344e-03   8.470004e-01   4024034
  1.750392e+00   1.661970e+03   1.843071e-03   8.460992e-01   4060208
  1.756773e+00   1.661034e+03   1.840812e-03   8.426780e-01   4083632
  1.763145e+00   1.661369e+03   1.837811e-03   8.419202e-01   4107062
  1.769521e+00   1.659431e+03   1.842771e-03   8.369550e-01   4148072
  1.775893e+00   1.662297e+03   1.836707e-03   8.353895e-01   4163456
  1.782267e+00   1.662202e+03   1.842476e-03   8.331066e-01   4207994
  1.788652e+00   1.661588e+03   1.843367e-03   8.285556e-01   4239152
  1.795029e+00   1.661687e+03   1.839132e-03   8.275032e-01   4259426
  1.801407e+00   1.664861e+03   1.842524e-03   8.257303e-01   4299488
  1.807788e+00   1.663913e+03   1.840660e-03   8.231917e-01   4323692
  1.814162e+00   1.664084e+03   1.840093e-03   8.203361e-01   4353242
  1.820541e+00   1.663023e+03   1.841694e-03   8.165472e-01   4388792
