# Matter power spectrum P(k) at redshift z=1
# for k=1.02819e-05 to 5.00333 h/Mpc,
# number of wavenumbers equal to 1940
#    1:k (h/Mpc)              2:P (Mpc/h)^3        
       1.028185622909e-05       1.519067442474e+01 
       1.034121403287e-05       1.527837073514e+01 
       1.040091451300e-05       1.536657343985e+01 
       1.046095964776e-05       1.545528521825e+01 
       1.052135142686e-05       1.554451028359e+01 
       1.058209185151e-05       1.563424906049e+01 
       1.064318293446e-05       1.572450537815e+01 
       1.070462670008e-05       1.581528363977e+01 
       1.076642518443e-05       1.590658571966e+01 
       1.082858043532e-05       1.599841580424e+01 
       1.089109451240e-05       1.609077450691e+01 
       1.095396948718e-05       1.618366628267e+01 
       1.101720744314e-05       1.627709601399e+01 
       1.108081047582e-05       1.637106475258e+01 
       1.114478069280e-05       1.646557236590e+01 
       1.120912021388e-05       1.656063168339e+01 
       1.127383117107e-05       1.665623511936e+01 
       1.133891570869e-05       1.675239319518e+01 
       1.140437598345e-05       1.684910571548e+01 
       1.147021416450e-05       1.694637323286e+01 
       1.153643243351e-05       1.704420686758e+01 
       1.160303298477e-05       1.714260448190e+01 
       1.167001802520e-05       1.724156845587e+01 
       1.173738977449e-05       1.734110255551e+01 
       1.180515046514e-05       1.744121509831e+01 
       1.187330234252e-05       1.754190413809e+01 
       1.194184766498e-05       1.764317326235e+01 
       1.201078870391e-05       1.774502731405e+01 
       1.208012774379e-05       1.784747118066e+01 
       1.214986708233e-05       1.795050540416e+01 
       1.222000903046e-05       1.805413371692e+01 
       1.229055591247e-05       1.815836062854e+01 
       1.236151006608e-05       1.826318929027e+01 
       1.243287384249e-05       1.836862310384e+01 
       1.250464960647e-05       1.847466568983e+01 
       1.257683973647e-05       1.858131971806e+01 
       1.264944662463e-05       1.868859027979e+01 
       1.272247267693e-05       1.879647991597e+01 
       1.279592031323e-05       1.890499279693e+01 
       1.286979196736e-05       1.901413168827e+01 
       1.294409008721e-05       1.912390093239e+01 
       1.301881713479e-05       1.923430363631e+01 
       1.309397558631e-05       1.934534292008e+01 
       1.316956793232e-05       1.945702396111e+01 
       1.324559667769e-05       1.956935003403e+01 
       1.332206434181e-05       1.968232451095e+01 
       1.339897345857e-05       1.979595093973e+01 
       1.347632657650e-05       1.991023324888e+01 
       1.355412625886e-05       2.002517654767e+01 
       1.363237508369e-05       2.014078022539e+01 
       1.371107564391e-05       2.025705521037e+01 
       1.379023054742e-05       2.037399780698e+01 
       1.386984241718e-05       2.049161705961e+01 
       1.394991389128e-05       2.060991564676e+01 
       1.403044762304e-05       2.072889731482e+01 
       1.411144628111e-05       2.084856546029e+01 
       1.419291254954e-05       2.096892235603e+01 
       1.427484912787e-05       2.108997796697e+01 
       1.435725873122e-05       2.121173085701e+01 
       1.444014409041e-05       2.133418613438e+01 
       1.452350795200e-05       2.145734907382e+01 
       1.460735307841e-05       2.158121901499e+01 
       1.469168224802e-05       2.170581055422e+01 
       1.477649825524e-05       2.183111938735e+01 
       1.486180391061e-05       2.195715055876e+01 
       1.494760204091e-05       2.208390894315e+01 
       1.503389548922e-05       2.221139865841e+01 
       1.512068711504e-05       2.233961970949e+01 
       1.520797979438e-05       2.246858639185e+01 
       1.529577641986e-05       2.259829746422e+01 
       1.538407990080e-05       2.272876005627e+01 
       1.547289316329e-05       2.285997318827e+01 
       1.556221915034e-05       2.299194831893e+01 
       1.565206082194e-05       2.312468084353e+01 
       1.574242115517e-05       2.325817806148e+01 
       1.583330314430e-05       2.339244748464e+01 
       1.592470980088e-05       2.352749201183e+01 
       1.601664415384e-05       2.366331631286e+01 
       1.610910924962e-05       2.379992482909e+01 
       1.620210815222e-05       2.393732248427e+01 
       1.629564394334e-05       2.407551308138e+01 
       1.638971972248e-05       2.421450009379e+01 
       1.648433860702e-05       2.435429093676e+01 
       1.657950373234e-05       2.449488780008e+01 
       1.667521825193e-05       2.463628963272e+01 
       1.677148533746e-05       2.477851403775e+01 
       1.686830817895e-05       2.492156621418e+01 
       1.696568998480e-05       2.506543999426e+01 
       1.706363398195e-05       2.521013946543e+01 
       1.716214341596e-05       2.535567965455e+01 
       1.726122155115e-05       2.550205751055e+01 
       1.736087167065e-05       2.564928023301e+01 
       1.746109707657e-05       2.579734929957e+01 
       1.756190109007e-05       2.594627970753e+01 
       1.766328705150e-05       2.609606794294e+01 
       1.776525832046e-05       2.624671441870e+01 
       1.786781827599e-05       2.639824118346e+01 
       1.797097031660e-05       2.655063811383e+01 
       1.807471786044e-05       2.670391437631e+01 
       1.817906434539e-05       2.685807484830e+01 
       1.828401322917e-05       2.701312584759e+01 
       1.838956798946e-05       2.716907203940e+01 
       1.849573212404e-05       2.732591820039e+01 
       1.860250915086e-05       2.748367018512e+01 
       1.870990260817e-05       2.764233154716e+01 
       1.881791605469e-05       2.780191060219e+01 
       1.892655306963e-05       2.796241030685e+01 
       1.903581725291e-05       2.812383544427e+01 
       1.914571222520e-05       2.828619439237e+01 
       1.925624162809e-05       2.844948959298e+01 
       1.936740912418e-05       2.861372754242e+01 
       1.947921839724e-05       2.877891358142e+01 
       1.959167315227e-05       2.894505325164e+01 
       1.970477711569e-05       2.911215186135e+01 
       1.981853403541e-05       2.928021516819e+01 
       1.993294768100e-05       2.944924865473e+01 
       2.004802184377e-05       2.961925659077e+01 
       2.016376033694e-05       2.979024916087e+01 
       2.028016699571e-05       2.996222652902e+01 
       2.039724567747e-05       3.013519711758e+01 
       2.051500026182e-05       3.030916518600e+01 
       2.063343465082e-05       3.048413858436e+01 
       2.075255276900e-05       3.066012272727e+01 
       2.087235856358e-05       3.083712272200e+01 
       2.099285600456e-05       3.101514370538e+01 
       2.111404908486e-05       3.119419144092e+01 
       2.123594182045e-05       3.137427485080e+01 
       2.135853825048e-05       3.155539605061e+01 
       2.148184243743e-05       3.173756437631e+01 
       2.160585846721e-05       3.192078257920e+01 
       2.173059044935e-05       3.210505960929e+01 
       2.185604251708e-05       3.229039972017e+01 
       2.198221882750e-05       3.247681041260e+01 
       2.210912356171e-05       3.266429692712e+01 
       2.223676092494e-05       3.285286616828e+01 
       2.236513514672e-05       3.304252354049e+01 
       2.249425048096e-05       3.323327573920e+01 
       2.262411120617e-05       3.342512847791e+01 
       2.275472162552e-05       3.361809004816e+01 
       2.288608606705e-05       3.381216463380e+01 
       2.301820888378e-05       3.400735912029e+01 
       2.315109445385e-05       3.420368092962e+01 
       2.328474718069e-05       3.440113686816e+01 
       2.341917149315e-05       3.459973111569e+01 
       2.355437184562e-05       3.479947310197e+01 
       2.369035271825e-05       3.500036750425e+01 
       2.382711861703e-05       3.520242118301e+01 
       2.396467407396e-05       3.540564195033e+01 
       2.410302364720e-05       3.561003516403e+01 
       2.424217192125e-05       3.581560952769e+01 
       2.438212350705e-05       3.602236882048e+01 
       2.452288304217e-05       3.623032344269e+01 
       2.466445519096e-05       3.643947686426e+01 
       2.480684464468e-05       3.664983842125e+01 
       2.495005612169e-05       3.686141443775e+01 
       2.509409436758e-05       3.707421165439e+01 
       2.523896415533e-05       3.728823782307e+01 
       2.538467028550e-05       3.750349807421e+01 
       2.553121758633e-05       3.772000150189e+01 
       2.567861091397e-05       3.793775609040e+01 
       2.582685515258e-05       3.815676543724e+01 
       2.597595521451e-05       3.837704052347e+01 
       2.612591604049e-05       3.859858635969e+01 
       2.627674259977e-05       3.882141143499e+01 
       2.642843989028e-05       3.904552396370e+01 
       2.658101293880e-05       3.927092772269e+01 
       2.673446680115e-05       3.949763390098e+01 
       2.688880656231e-05       3.972565055744e+01 
       2.704403733664e-05       3.995498023008e+01 
       2.720016426800e-05       4.018563485710e+01 
       2.735719252998e-05       4.041762152662e+01 
       2.751512732601e-05       4.065094705052e+01 
       2.767397388956e-05       4.088562044586e+01 
       2.783373748433e-05       4.112164713057e+01 
       2.799442340440e-05       4.135903655328e+01 
       2.815603697441e-05       4.159779630139e+01 
       2.831858354975e-05       4.183793427284e+01 
       2.848206851670e-05       4.207945842398e+01 
       2.864649729267e-05       4.232237675477e+01 
       2.881187532632e-05       4.256669730942e+01 
       2.897820809777e-05       4.281242829289e+01 
       2.914550111880e-05       4.305957762459e+01 
       2.931375993298e-05       4.330815313820e+01 
       2.948299011589e-05       4.355816448625e+01 
       2.965319727530e-05       4.380961849099e+01 
       2.982438705138e-05       4.406252398208e+01 
       2.999656511681e-05       4.431688876371e+01 
       3.016973717707e-05       4.457272239524e+01 
       3.034390897054e-05       4.483003338480e+01 
       3.051908626874e-05       4.508882906683e+01 
       3.069527487653e-05       4.534911860235e+01 
       3.087248063225e-05       4.561091059997e+01 
       3.105070940796e-05       4.587421375479e+01 
       3.122996710962e-05       4.613903677500e+01 
       3.141025967728e-05       4.640538783400e+01 
       3.159159308530e-05       4.667327675700e+01 
       3.177397334251e-05       4.694271217910e+01 
       3.195740649243e-05       4.721370284848e+01 
       3.214189861348e-05       4.748625814835e+01 
       3.232745581917e-05       4.776038632463e+01 
       3.251408425830e-05       4.803609684865e+01 
       3.270179011517e-05       4.831339882242e+01 
       3.289057960978e-05       4.859230144390e+01 
       3.308045899803e-05       4.887281394965e+01 
       3.327143457195e-05       4.915494562939e+01 
       3.346351265989e-05       4.943870582663e+01 
       3.365669962674e-05       4.972410393859e+01 
       3.385100187411e-05       5.001114941675e+01 
       3.404642584060e-05       5.029985176692e+01 
       3.424297800196e-05       5.059022054985e+01 
       3.444066487134e-05       5.088226526959e+01 
       3.463949299946e-05       5.117599582032e+01 
       3.483946897490e-05       5.147142186071e+01 
       3.504059942423e-05       5.176855308860e+01 
       3.524289101233e-05       5.206739931809e+01 
       3.544635044251e-05       5.236797057829e+01 
       3.565098445679e-05       5.267027627568e+01 
       3.585679983614e-05       5.297432787454e+01 
       3.606380340063e-05       5.328013409446e+01 
       3.627200200974e-05       5.358770525272e+01 
       3.648140256255e-05       5.389705179422e+01 
       3.669201199793e-05       5.420818375325e+01 
       3.690383729486e-05       5.452111177496e+01 
       3.711688547257e-05       5.483584633017e+01 
       3.733116359083e-05       5.515239675874e+01 
       3.754667875016e-05       5.547077469019e+01 
       3.776343809210e-05       5.579098991716e+01 
       3.798144879936e-05       5.611305389009e+01 
       3.820071809618e-05       5.643697723508e+01 
       3.842125324846e-05       5.676276973141e+01 
       3.864306156407e-05       5.709044260495e+01 
       3.886615039306e-05       5.742000676829e+01 
       3.909052712791e-05       5.775147354973e+01 
       3.931619920379e-05       5.808485192006e+01 
       3.954317409879e-05       5.842015636858e+01 
       3.977145933415e-05       5.875739513554e+01 
       4.000106247455e-05       5.909658038650e+01 
       4.023199112836e-05       5.943772409887e+01 
       4.046425294783e-05       5.978083689975e+01 
       4.069785562941e-05       6.012592900707e+01 
       4.093280691400e-05       6.047301347721e+01 
       4.116911458715e-05       6.082210068824e+01 
       4.140678647939e-05       6.117320388450e+01 
       4.164583046643e-05       6.152633289097e+01 
       4.188625446947e-05       6.188150049578e+01 
       4.212806645543e-05       6.223871757710e+01 
       4.237127443722e-05       6.259799576093e+01 
       4.261588647401e-05       6.295934772651e+01 
       4.286191067150e-05       6.332278657629e+01 
       4.310935518218e-05       6.368832224382e+01 
       4.335822820561e-05       6.405596767479e+01 
       4.360853798869e-05       6.442573491157e+01 
       4.386029282591e-05       6.479763667283e+01 
       4.411350105967e-05       6.517168450865e+01 
       4.436817108051e-05       6.554789116087e+01 
       4.462431132743e-05       6.592626804047e+01 
       4.488193028814e-05       6.630682982612e+01 
       4.514103649933e-05       6.668958869554e+01 
       4.540163854700e-05       6.707455608148e+01 
       4.566374506672e-05       6.746174515470e+01 
       4.592736474388e-05       6.785116889752e+01 
       4.619250631405e-05       6.824284008073e+01 
       4.645917856321e-05       6.863677171753e+01 
       4.672739032807e-05       6.903297726848e+01 
       4.699715049634e-05       6.943146794979e+01 
       4.726846800705e-05       6.983226030031e+01 
       4.754135185086e-05       7.023536525351e+01 
       4.781581107028e-05       7.064079643371e+01 
       4.809185476007e-05       7.104856746437e+01 
       4.836949206747e-05       7.145869178254e+01 
       4.864873219253e-05       7.187118281030e+01 
       4.892958438844e-05       7.228605503713e+01 
       4.921205796176e-05       7.270332099366e+01 
       4.949616227282e-05       7.312299489664e+01 
       4.978190673596e-05       7.354509121142e+01 
       5.006930081990e-05       7.396962336574e+01 
       5.035835404798e-05       7.439660570041e+01 
       5.064907599857e-05       7.482605256921e+01 
       5.094147630528e-05       7.525797732901e+01 
       5.123556465740e-05       7.569239427290e+01 
       5.153135080009e-05       7.612931915885e+01 
       5.182884453483e-05       7.656876463836e+01 
       5.212805571963e-05       7.701074660037e+01 
       5.242899426946e-05       7.745527897932e+01 
       5.273167015650e-05       7.790237701851e+01 
       5.303609341050e-05       7.835205506410e+01 
       5.334227411912e-05       7.880432855234e+01 
       5.365022242827e-05       7.925921108296e+01 
       5.395994854240e-05       7.971671924510e+01 
       5.427146272491e-05       8.017686748209e+01 
       5.458477529842e-05       8.063967159886e+01 
       5.489989664515e-05       8.110514553719e+01 
       5.521683720727e-05       8.157330643627e+01 
       5.553560748723e-05       8.204416856744e+01 
       5.585621804809e-05       8.251774730147e+01 
       5.617867951392e-05       8.299405939890e+01 
       5.650300257011e-05       8.347311993719e+01 
       5.682919796373e-05       8.395494520255e+01 
       5.715727650392e-05       8.443955075112e+01 
       5.748724906218e-05       8.492695257300e+01 
       5.781912657281e-05       8.541716740128e+01 
       5.815292003322e-05       8.591021023887e+01 
       5.848864050431e-05       8.640609883441e+01 
       5.882629911083e-05       8.690484853901e+01 
       5.916590704175e-05       8.740647618433e+01 
       5.950747555066e-05       8.791099851770e+01 
       5.985101595609e-05       8.841843180642e+01 
       6.019653964192e-05       8.892879322700e+01 
       6.054405805776e-05       8.944209960134e+01 
       6.089358271931e-05       8.995836779270e+01 
       6.124512520875e-05       9.047761452479e+01 
       6.159869717513e-05       9.099985832209e+01 
       6.195431033475e-05       9.152511439448e+01 
       6.231197647154e-05       9.205340220185e+01 
       6.267170743747e-05       9.258473741441e+01 
       6.303351515293e-05       9.311913880973e+01 
       6.339741160713e-05       9.365662407916e+01 
       6.376340885849e-05       9.419721014841e+01 
       6.413151903503e-05       9.474091502353e+01 
       6.450175433482e-05       9.528775774366e+01 
       6.487412702632e-05       9.583775511348e+01 
       6.524864944882e-05       9.639092595911e+01 
       6.562533401287e-05       9.694728846705e+01 
       6.600419320064e-05       9.750686037961e+01 
       6.638523956636e-05       9.806966136703e+01 
       6.676848573676e-05       9.863570983626e+01 
       6.715394441145e-05       9.920502378821e+01 
       6.754162836336e-05       9.977762245291e+01 
       6.793155043914e-05       1.003535243343e+02 
       6.832372355963e-05       1.009327495122e+02 
       6.871816072025e-05       1.015153157432e+02 
       6.911487499145e-05       1.021012434141e+02 
       6.951387951914e-05       1.026905518479e+02 
       6.991518752510e-05       1.032832599201e+02 
       7.031881230746e-05       1.038793871941e+02 
       7.072476724111e-05       1.044789532039e+02 
       7.113306577818e-05       1.050819786781e+02 
       7.154372144843e-05       1.056884835236e+02 
       7.195674785973e-05       1.062984864315e+02 
       7.237215869852e-05       1.069120094292e+02 
       7.278996773026e-05       1.075290710962e+02 
       7.321018879986e-05       1.081496927943e+02 
       7.363283583217e-05       1.087738946607e+02 
       7.405792283243e-05       1.094016968756e+02 
       7.448546388672e-05       1.100331217739e+02 
       7.491547316245e-05       1.106681886610e+02 
       7.534796490882e-05       1.113069188665e+02 
       7.578295345729e-05       1.119493339950e+02 
       7.622045322206e-05       1.125954546894e+02 
       7.666047870053e-05       1.132453019596e+02 
       7.710304447381e-05       1.138988984024e+02 
       7.754816520718e-05       1.145562656368e+02 
       7.799585565059e-05       1.152174236731e+02 
       7.844613063914e-05       1.158823960542e+02 
       7.889900509356e-05       1.165512044726e+02 
       7.935449402074e-05       1.172238702903e+02 
       7.981261251419e-05       1.179004162703e+02 
       8.027337575457e-05       1.185808645741e+02 
       8.073679901017e-05       1.192652374180e+02 
       8.120289763741e-05       1.199535578548e+02 
       8.167168708139e-05       1.206458484891e+02 
       8.214318287637e-05       1.213421312647e+02 
       8.261740064628e-05       1.220424314794e+02 
       8.309435610525e-05       1.227467703766e+02 
       8.357406505814e-05       1.234551713217e+02 
       8.405654340103e-05       1.241676580609e+02 
       8.454180712179e-05       1.248842542182e+02 
       8.502987230059e-05       1.256049832495e+02 
       8.552075511041e-05       1.263298688868e+02 
       8.601447181762e-05       1.270589354118e+02 
       8.651103878248e-05       1.277922063118e+02 
       8.701047245972e-05       1.285297063289e+02 
       8.751278939904e-05       1.292714595368e+02 
       8.801800624570e-05       1.300174907332e+02 
       8.852613974104e-05       1.307678234336e+02 
       8.903720672307e-05       1.315224838411e+02 
       8.955122412698e-05       1.322814962133e+02 
       9.006820898575e-05       1.330448859903e+02 
       9.058817843067e-05       1.338126774579e+02 
       9.111114969197e-05       1.345848967866e+02 
       9.163714009930e-05       1.353615689040e+02 
