# Matter power spectrum P(k) at redshift z=10
# for k=1.02819e-05 to 5.00333 h/Mpc,
# number of wavenumbers equal to 1940
#    1:k (h/Mpc)              2:P (Mpc/h)^3        
       1.028185622909e-05       5.468122039531e-01 
       1.034121403287e-05       5.499689760665e-01 
       1.040091451300e-05       5.531439718194e-01 
       1.046095964776e-05       5.563372970806e-01 
       1.052135142686e-05       5.595490570597e-01 
       1.058209185151e-05       5.627793585089e-01 
       1.064318293446e-05       5.660283061620e-01 
       1.070462670008e-05       5.692960124042e-01 
       1.076642518443e-05       5.725825837930e-01 
       1.082858043532e-05       5.758881288680e-01 
       1.089109451240e-05       5.792127565496e-01 
       1.095396948718e-05       5.825565772175e-01 
       1.101720744314e-05       5.859197015288e-01 
       1.108081047582e-05       5.893022406955e-01 
       1.114478069280e-05       5.927043108085e-01 
       1.120912021388e-05       5.961260139586e-01 
       1.127383117107e-05       5.995674749235e-01 
       1.133891570869e-05       6.030288035265e-01 
       1.140437598345e-05       6.065101137407e-01 
       1.147021416450e-05       6.100115251063e-01 
       1.153643243351e-05       6.135331471252e-01 
       1.160303298477e-05       6.170750956113e-01 
       1.167001802520e-05       6.206374950408e-01 
       1.173738977449e-05       6.242204610813e-01 
       1.180515046514e-05       6.278241116118e-01 
       1.187330234252e-05       6.314485651492e-01 
       1.194184766498e-05       6.350939428481e-01 
       1.201078870391e-05       6.387603649393e-01 
       1.208012774379e-05       6.424479533569e-01 
       1.214986708233e-05       6.461568306176e-01 
       1.222000903046e-05       6.498871209148e-01 
       1.229055591247e-05       6.536389446202e-01 
       1.236151006608e-05       6.574124272296e-01 
       1.243287384249e-05       6.612076941062e-01 
       1.250464960647e-05       6.650248695034e-01 
       1.257683973647e-05       6.688640831065e-01 
       1.264944662463e-05       6.727254604532e-01 
       1.272247267693e-05       6.766091294162e-01 
       1.279592031323e-05       6.805152184225e-01 
       1.286979196736e-05       6.844438571761e-01 
       1.294409008721e-05       6.883951768297e-01 
       1.301881713479e-05       6.923693069716e-01 
       1.309397558631e-05       6.963663790624e-01 
       1.316956793232e-05       7.003865267938e-01 
       1.324559667769e-05       7.044298826169e-01 
       1.332206434181e-05       7.084965805497e-01 
       1.339897345857e-05       7.125867550895e-01 
       1.347632657650e-05       7.167005421349e-01 
       1.355412625886e-05       7.208380776271e-01 
       1.363237508369e-05       7.249995007848e-01 
       1.371107564391e-05       7.291849452412e-01 
       1.379023054742e-05       7.333945546235e-01 
       1.386984241718e-05       7.376284644729e-01 
       1.394991389128e-05       7.418868169740e-01 
       1.403044762304e-05       7.461697508670e-01 
       1.411144628111e-05       7.504774113244e-01 
       1.419291254954e-05       7.548099404121e-01 
       1.427484912787e-05       7.591674803158e-01 
       1.435725873122e-05       7.635501779915e-01 
       1.444014409041e-05       7.679581745814e-01 
       1.452350795200e-05       7.723916198682e-01 
       1.460735307841e-05       7.768506582929e-01 
       1.469168224802e-05       7.813354392280e-01 
       1.477649825524e-05       7.858461103287e-01 
       1.486180391061e-05       7.903828204289e-01 
       1.494760204091e-05       7.949457199008e-01 
       1.503389548922e-05       7.995349641255e-01 
       1.512068711504e-05       8.041506994840e-01 
       1.520797979438e-05       8.087930819886e-01 
       1.529577641986e-05       8.134622647114e-01 
       1.538407990080e-05       8.181584023512e-01 
       1.547289316329e-05       8.228816501418e-01 
       1.556221915034e-05       8.276321658236e-01 
       1.565206082194e-05       8.324101054005e-01 
       1.574242115517e-05       8.372156276633e-01 
       1.583330314430e-05       8.420488919951e-01 
       1.592470980088e-05       8.469100584643e-01 
       1.601664415384e-05       8.517992884011e-01 
       1.610910924962e-05       8.567167423989e-01 
       1.620210815222e-05       8.616625851922e-01 
       1.629564394334e-05       8.666369803977e-01 
       1.638971972248e-05       8.716400935489e-01 
       1.648433860702e-05       8.766720875135e-01 
       1.657950373234e-05       8.817331314929e-01 
       1.667521825193e-05       8.868233926479e-01 
       1.677148533746e-05       8.919430393492e-01 
       1.686830817895e-05       8.970922403335e-01 
       1.696568998480e-05       9.022711682535e-01 
       1.706363398195e-05       9.074799941671e-01 
       1.716214341596e-05       9.127188899820e-01 
       1.726122155115e-05       9.179880296527e-01 
       1.736087167065e-05       9.232875866375e-01 
       1.746109707657e-05       9.286177374166e-01 
       1.756190109007e-05       9.339786604245e-01 
       1.766328705150e-05       9.393705303203e-01 
       1.776525832046e-05       9.447935271368e-01 
       1.786781827599e-05       9.502478300267e-01 
       1.797097031660e-05       9.557336205604e-01 
       1.807471786044e-05       9.612510812073e-01 
       1.817906434539e-05       9.668003921309e-01 
       1.828401322917e-05       9.723817396312e-01 
       1.838956798946e-05       9.779953070448e-01 
       1.849573212404e-05       9.836412810999e-01 
       1.860250915086e-05       9.893198479844e-01 
       1.870990260817e-05       9.950311975376e-01 
       1.881791605469e-05       1.000775517889e+00 
       1.892655306963e-05       1.006552998720e+00 
       1.903581725291e-05       1.012363833323e+00 
       1.914571222520e-05       1.018208213755e+00 
       1.925624162809e-05       1.024086332136e+00 
       1.936740912418e-05       1.029998384149e+00 
       1.947921839724e-05       1.035944566661e+00 
       1.959167315227e-05       1.041925075256e+00 
       1.970477711569e-05       1.047940108255e+00 
       1.981853403541e-05       1.053989865804e+00 
       1.993294768100e-05       1.060074547003e+00 
       2.004802184377e-05       1.066194354756e+00 
       2.016376033694e-05       1.072349490381e+00 
       2.028016699571e-05       1.078540159323e+00 
       2.039724567747e-05       1.084766567708e+00 
       2.051500026182e-05       1.091028918543e+00 
       2.063343465082e-05       1.097327421818e+00 
       2.075255276900e-05       1.103662284786e+00 
       2.087235856358e-05       1.110033718620e+00 
       2.099285600456e-05       1.116441933456e+00 
       2.111404908486e-05       1.122887141861e+00 
       2.123594182045e-05       1.129369557349e+00 
       2.135853825048e-05       1.135889395189e+00 
       2.148184243743e-05       1.142446870532e+00 
       2.160585846721e-05       1.149042201340e+00 
       2.173059044935e-05       1.155675605222e+00 
       2.185604251708e-05       1.162347303285e+00 
       2.198221882750e-05       1.169057516448e+00 
       2.210912356171e-05       1.175806466101e+00 
       2.223676092494e-05       1.182594374900e+00 
       2.236513514672e-05       1.189421471312e+00 
       2.249425048096e-05       1.196287977219e+00 
       2.262411120617e-05       1.203194124642e+00 
       2.275472162552e-05       1.210140137498e+00 
       2.288608606705e-05       1.217126250380e+00 
       2.301820888378e-05       1.224152691892e+00 
       2.315109445385e-05       1.231219694656e+00 
       2.328474718069e-05       1.238327494589e+00 
       2.341917149315e-05       1.245476327448e+00 
       2.355437184562e-05       1.252666428058e+00 
       2.369035271825e-05       1.259898035574e+00 
       2.382711861703e-05       1.267171389943e+00 
       2.396467407396e-05       1.274486731926e+00 
       2.410302364720e-05       1.281844303497e+00 
       2.424217192125e-05       1.289244348741e+00 
       2.438212350705e-05       1.296687112774e+00 
       2.452288304217e-05       1.304172841797e+00 
       2.466445519096e-05       1.311701785409e+00 
       2.480684464468e-05       1.319274190920e+00 
       2.495005612169e-05       1.326890309862e+00 
       2.509409436758e-05       1.334550395162e+00 
       2.523896415533e-05       1.342254699300e+00 
       2.538467028550e-05       1.350003480209e+00 
       2.553121758633e-05       1.357796992032e+00 
       2.567861091397e-05       1.365635492663e+00 
       2.582685515258e-05       1.373519243652e+00 
       2.597595521451e-05       1.381448505943e+00 
       2.612591604049e-05       1.389423542642e+00 
       2.627674259977e-05       1.397444615846e+00 
       2.642843989028e-05       1.405511991692e+00 
       2.658101293880e-05       1.413625939221e+00 
       2.673446680115e-05       1.421786726194e+00 
       2.688880656231e-05       1.429994622798e+00 
       2.704403733664e-05       1.438249902354e+00 
       2.720016426800e-05       1.446552836262e+00 
       2.735719252998e-05       1.454903700440e+00 
       2.751512732601e-05       1.463302771670e+00 
       2.767397388956e-05       1.471750327600e+00 
       2.783373748433e-05       1.480246649257e+00 
       2.799442340440e-05       1.488792017369e+00 
       2.815603697441e-05       1.497386715152e+00 
       2.831858354975e-05       1.506031027313e+00 
       2.848206851670e-05       1.514725240224e+00 
       2.864649729267e-05       1.523469641906e+00 
       2.881187532632e-05       1.532264522042e+00 
       2.897820809777e-05       1.541110171937e+00 
       2.914550111880e-05       1.550006884719e+00 
       2.931375993298e-05       1.558954955617e+00 
       2.948299011589e-05       1.567954679388e+00 
       2.965319727530e-05       1.577006355871e+00 
       2.982438705138e-05       1.586110284336e+00 
       2.999656511681e-05       1.595266765780e+00 
       3.016973717707e-05       1.604476104707e+00 
       3.034390897054e-05       1.613738606078e+00 
       3.051908626874e-05       1.623054575785e+00 
       3.069527487653e-05       1.632424322906e+00 
       3.087248063225e-05       1.641848157827e+00 
       3.105070940796e-05       1.651326392725e+00 
       3.122996710962e-05       1.660859341578e+00 
       3.141025967728e-05       1.670447319315e+00 
       3.159159308530e-05       1.680090645260e+00 
       3.177397334251e-05       1.689789638001e+00 
       3.195740649243e-05       1.699544618823e+00 
       3.214189861348e-05       1.709355911092e+00 
       3.232745581917e-05       1.719223839360e+00 
       3.251408425830e-05       1.729148731279e+00 
       3.270179011517e-05       1.739130914515e+00 
       3.289057960978e-05       1.749170720277e+00 
       3.308045899803e-05       1.759268481129e+00 
       3.327143457195e-05       1.769424531555e+00 
       3.346351265989e-05       1.779639207975e+00 
       3.365669962674e-05       1.789912848742e+00 
       3.385100187411e-05       1.800245794165e+00 
       3.404642584060e-05       1.810638386509e+00 
       3.424297800196e-05       1.821090970020e+00 
       3.444066487134e-05       1.831603890929e+00 
       3.463949299946e-05       1.842177497460e+00 
       3.483946897490e-05       1.852812139531e+00 
       3.504059942423e-05       1.863508169970e+00 
       3.524289101233e-05       1.874265942797e+00 
       3.544635044251e-05       1.885085814592e+00 
       3.565098445679e-05       1.895968143486e+00 
       3.585679983614e-05       1.906913290484e+00 
       3.606380340063e-05       1.917921616013e+00 
       3.627200200974e-05       1.928993488308e+00 
       3.648140256255e-05       1.940129270893e+00 
       3.669201199793e-05       1.951329333734e+00 
       3.690383729486e-05       1.962594047819e+00 
       3.711688547257e-05       1.973923785864e+00 
       3.733116359083e-05       1.985318924314e+00 
       3.754667875016e-05       1.996779839465e+00 
       3.776343809210e-05       2.008306911271e+00 
       3.798144879936e-05       2.019900521559e+00 
       3.820071809618e-05       2.031561053556e+00 
       3.842125324846e-05       2.043288894921e+00 
       3.864306156407e-05       2.055084433255e+00 
       3.886615039306e-05       2.066948059300e+00 
       3.909052712791e-05       2.078880166295e+00 
       3.931619920379e-05       2.090881148756e+00 
       3.954317409879e-05       2.102951404686e+00 
       3.977145933415e-05       2.115091332510e+00 
       4.000106247455e-05       2.127301336592e+00 
       4.023199112836e-05       2.139581820585e+00 
       4.046425294783e-05       2.151933190393e+00 
       4.069785562941e-05       2.164355855258e+00 
       4.093280691400e-05       2.176850227591e+00 
       4.116911458715e-05       2.189416719389e+00 
       4.140678647939e-05       2.202055749320e+00 
       4.164583046643e-05       2.214767733434e+00 
       4.188625446947e-05       2.227553093843e+00 
       4.212806645543e-05       2.240412253869e+00 
       4.237127443722e-05       2.253345639253e+00 
       4.261588647401e-05       2.266353678933e+00 
       4.286191067150e-05       2.279436802687e+00 
       4.310935518218e-05       2.292595444977e+00 
       4.335822820561e-05       2.305830040586e+00 
       4.360853798869e-05       2.319141028239e+00 
       4.386029282591e-05       2.332528848246e+00 
       4.411350105967e-05       2.345993944672e+00 
       4.436817108051e-05       2.359536762629e+00 
       4.462431132743e-05       2.373157751739e+00 
       4.488193028814e-05       2.386857361852e+00 
       4.514103649933e-05       2.400636047070e+00 
       4.540163854700e-05       2.414494264596e+00 
       4.566374506672e-05       2.428432471372e+00 
       4.592736474388e-05       2.442451130964e+00 
       4.619250631405e-05       2.456550705672e+00 
       4.645917856321e-05       2.470731662928e+00 
       4.672739032807e-05       2.484994474293e+00 
       4.699715049634e-05       2.499339609157e+00 
       4.726846800705e-05       2.513767545497e+00 
       4.754135185086e-05       2.528278757596e+00 
       4.781581107028e-05       2.542873728133e+00 
       4.809185476007e-05       2.557552939599e+00 
       4.836949206747e-05       2.572316879338e+00 
       4.864873219253e-05       2.587166034385e+00 
       4.892958438844e-05       2.602100898408e+00 
       4.921205796176e-05       2.617121963360e+00 
       4.949616227282e-05       2.632229728022e+00 
       4.978190673596e-05       2.647424693341e+00 
       5.006930081990e-05       2.662707361457e+00 
       5.035835404798e-05       2.678078238810e+00 
       5.064907599857e-05       2.693537833342e+00 
       5.094147630528e-05       2.709086658432e+00 
       5.123556465740e-05       2.724725227583e+00 
       5.153135080009e-05       2.740454058977e+00 
       5.182884453483e-05       2.756273672657e+00 
       5.212805571963e-05       2.772184594367e+00 
       5.242899426946e-05       2.788187349457e+00 
       5.273167015650e-05       2.804282467558e+00 
       5.303609341050e-05       2.820470481713e+00 
       5.334227411912e-05       2.836751927538e+00 
       5.365022242827e-05       2.853127345113e+00 
       5.395994854240e-05       2.869597276266e+00 
       5.427146272491e-05       2.886162263990e+00 
       5.458477529842e-05       2.902822859821e+00 
       5.489989664515e-05       2.919579613419e+00 
       5.521683720727e-05       2.936433079776e+00 
       5.553560748723e-05       2.953383818799e+00 
       5.585621804809e-05       2.970432387216e+00 
       5.617867951392e-05       2.987579353463e+00 
       5.650300257011e-05       3.004825283820e+00 
       5.682919796373e-05       3.022170747956e+00 
       5.715727650392e-05       3.039616321482e+00 
       5.748724906218e-05       3.057162581462e+00 
       5.781912657281e-05       3.074810108851e+00 
       5.815292003322e-05       3.092559486808e+00 
       5.848864050431e-05       3.110411303778e+00 
       5.882629911083e-05       3.128366148557e+00 
       5.916590704175e-05       3.146424621077e+00 
       5.950747555066e-05       3.164587314179e+00 
       5.985101595609e-05       3.182854829121e+00 
       6.019653964192e-05       3.201227769077e+00 
       6.054405805776e-05       3.219706749697e+00 
       6.089358271931e-05       3.238292371528e+00 
       6.124512520875e-05       3.256985261902e+00 
       6.159869717513e-05       3.275786030202e+00 
       6.195431033475e-05       3.294695299623e+00 
       6.231197647154e-05       3.313713700172e+00 
       6.267170743747e-05       3.332841856999e+00 
       6.303351515293e-05       3.352080405572e+00 
       6.339741160713e-05       3.371429981737e+00 
       6.376340885849e-05       3.390891226165e+00 
       6.413151903503e-05       3.410464782570e+00 
       6.450175433482e-05       3.430151300261e+00 
       6.487412702632e-05       3.449951427319e+00 
       6.524864944882e-05       3.469865821484e+00 
       6.562533401287e-05       3.489895141506e+00 
       6.600419320064e-05       3.510040048867e+00 
       6.638523956636e-05       3.530301211806e+00 
       6.676848573676e-05       3.550679298575e+00 
       6.715394441145e-05       3.571174985316e+00 
       6.754162836336e-05       3.591788950578e+00 
       6.793155043914e-05       3.612521873501e+00 
       6.832372355963e-05       3.633374440003e+00 
       6.871816072025e-05       3.654347346904e+00 
       6.911487499145e-05       3.675441281032e+00 
       6.951387951914e-05       3.696656941545e+00 
       6.991518752510e-05       3.717995032091e+00 
       7.031881230746e-05       3.739456255995e+00 
       7.072476724111e-05       3.761041325597e+00 
       7.113306577818e-05       3.782750953570e+00 
       7.154372144843e-05       3.804585859157e+00 
       7.195674785973e-05       3.826546765239e+00 
       7.237215869852e-05       3.848634396313e+00 
       7.278996773026e-05       3.870849482317e+00 
       7.321018879986e-05       3.893192762548e+00 
       7.363283583217e-05       3.915664969941e+00 
       7.405792283243e-05       3.938266852971e+00 
       7.448546388672e-05       3.960999155735e+00 
       7.491547316245e-05       3.983862632181e+00 
       7.534796490882e-05       4.006858037900e+00 
       7.578295345729e-05       4.029986132246e+00 
       7.622045322206e-05       4.053247684296e+00 
       7.666047870053e-05       4.076643457411e+00 
       7.710304447381e-05       4.100174230563e+00 
       7.754816520718e-05       4.123840775067e+00 
       7.799585565059e-05       4.147643884303e+00 
       7.844613063914e-05       4.171584336652e+00 
       7.889900509356e-05       4.195662926272e+00 
       7.935449402074e-05       4.219880449643e+00 
       7.981261251419e-05       4.244237704825e+00 
       8.027337575457e-05       4.268735502481e+00 
       8.073679901017e-05       4.293374649267e+00 
       8.120289763741e-05       4.318155960494e+00 
       8.167168708139e-05       4.343080256901e+00 
       8.214318287637e-05       4.368148359507e+00 
       8.261740064628e-05       4.393361099852e+00 
       8.309435610525e-05       4.418719310429e+00 
       8.357406505814e-05       4.444223826347e+00 
       8.405654340103e-05       4.469875497633e+00 
       8.454180712179e-05       4.495675166132e+00 
       8.502987230059e-05       4.521623685673e+00 
       8.552075511041e-05       4.547721921366e+00 
       8.601447181762e-05       4.573970727134e+00 
       8.651103878248e-05       4.600370970106e+00 
       8.701047245972e-05       4.626923533244e+00 
       8.751278939904e-05       4.653629279652e+00 
       8.801800624570e-05       4.680489106946e+00 
       8.852613974104e-05       4.707503891608e+00 
       8.903720672307e-05       4.734674529834e+00 
       8.955122412698e-05       4.762001921340e+00 
       9.006820898575e-05       4.789486968038e+00 
       9.058817843067e-05       4.817130573324e+00 
       9.111114969197e-05       4.844933662365e+00 
       9.163714009930e-05       4.872897144712e+00 
