# power spectrum of delta_kessence
# redshift z=96.269261
# k              Pk             sigma(k)       sigma(Pk)      count
  9.713012e-03   2.676641e-10   2.406229e-03   2.938029e-11   146
  2.072432e-02   1.758871e-09   3.528511e-03   6.051066e-11   1042
  3.284725e-02   4.665967e-09   3.519819e-03   9.386785e-11   2698
  4.516399e-02   8.701647e-09   3.571852e-03   1.234241e-10   5206
  5.773095e-02   1.453425e-08   3.674394e-03   1.637845e-10   8752
  7.053126e-02   2.238003e-08   3.718866e-03   1.967917e-10   13258
  8.325183e-02   3.000104e-08   3.633038e-03   2.252942e-10   18070
  9.586244e-02   3.569764e-08   3.646001e-03   2.304951e-10   24050
  1.086731e-01   4.246745e-08   3.743375e-03   2.390585e-10   31720
  1.214673e-01   5.260394e-08   3.655693e-03   2.665561e-10   38722
  1.341503e-01   6.228768e-08   3.664149e-03   2.892067e-10   47398
  1.468737e-01   6.940878e-08   3.676840e-03   2.901534e-10   56986
  1.596345e-01   7.488528e-08   3.691904e-03   2.902882e-10   67552
  1.723758e-01   8.337667e-08   3.670421e-03   2.984142e-10   78310
  1.850973e-01   9.282122e-08   3.676755e-03   3.107885e-10   90514
  1.978078e-01   1.039206e-07   3.661019e-03   3.271834e-10   102938
  2.105352e-01   1.092354e-07   3.688328e-03   3.192315e-10   117412
  2.233038e-01   1.159184e-07   3.687633e-03   3.187277e-10   132106
  2.360543e-01   1.229766e-07   3.674616e-03   3.209245e-10   147154
  2.487863e-01   1.319126e-07   3.675727e-03   3.264418e-10   163522
  2.615607e-01   1.415047e-07   3.698362e-03   3.320733e-10   181804
  2.742948e-01   1.480530e-07   3.657995e-03   3.352698e-10   197722
  2.870326e-01   1.532670e-07   3.695982e-03   3.273028e-10   218866
  2.998036e-01   1.615297e-07   3.677083e-03   3.312454e-10   237542
  3.125403e-01   1.691029e-07   3.676719e-03   3.330660e-10   258136
  3.252883e-01   1.773537e-07   3.682574e-03   3.359367e-10   280066
  3.380302e-01   1.832770e-07   3.674707e-03   3.346079e-10   301774
  3.507809e-01   1.891160e-07   3.685866e-03   3.306916e-10   326050
  3.635453e-01   1.959369e-07   3.682723e-03   3.323173e-10   349792
  3.763059e-01   2.032916e-07   3.686387e-03   3.333028e-10   375154
  3.890549e-01   2.100844e-07   3.673994e-03   3.340643e-10   399742
  4.017814e-01   2.175774e-07   3.673301e-03   3.334050e-10   426266
  4.145262e-01   2.227010e-07   3.683104e-03   3.306521e-10   454960
  4.272780e-01   2.287808e-07   3.679614e-03   3.294841e-10   482734
  4.400302e-01   2.354544e-07   3.684412e-03   3.289969e-10   512746
  4.527916e-01   2.421967e-07   3.682552e-03   3.287412e-10   542746
  4.655520e-01   2.466683e-07   3.684426e-03   3.256696e-10   573952
  4.783045e-01   2.524630e-07   3.678870e-03   3.265067e-10   604918
  4.910489e-01   2.590607e-07   3.679488e-03   3.247457e-10   637666
  5.038054e-01   2.640136e-07   3.685840e-03   3.213607e-10   672482
  5.165640e-01   2.709321e-07   3.679909e-03   3.225232e-10   705748
  5.293052e-01   2.759065e-07   3.678052e-03   3.198931e-10   740482
  5.420630e-01   2.810390e-07   3.688653e-03   3.179928e-10   779026
  5.548129e-01   2.858127e-07   3.672495e-03   3.170320e-10   812614
  5.675646e-01   2.914506e-07   3.688923e-03   3.155714e-10   854200
  5.803275e-01   2.972855e-07   3.679836e-03   3.151359e-10   890746
  5.930743e-01   3.025570e-07   3.680017e-03   3.131374e-10   930394
  6.058234e-01   3.080236e-07   3.680076e-03   3.132282e-10   970982
  6.185756e-01   3.130340e-07   3.681715e-03   3.112821e-10   1012600
  6.313355e-01   3.178561e-07   3.685773e-03   3.098633e-10   1055890
  6.440885e-01   3.228964e-07   3.677546e-03   3.097818e-10   1096630
  6.568331e-01   3.272486e-07   3.679931e-03   3.066604e-10   1141378
  6.695858e-01   3.320630e-07   3.681602e-03   3.053042e-10   1186552
  6.823378e-01   3.368157e-07   3.681238e-03   3.038517e-10   1231798
  6.950926e-01   3.412228e-07   3.683520e-03   3.024699e-10   1279234
  7.078494e-01   3.461840e-07   3.681308e-03   3.011759e-10   1325906
  7.206034e-01   3.509100e-07   3.681998e-03   2.998046e-10   1374352
  7.333523e-01   3.548907e-07   3.678754e-03   2.982562e-10   1421950
  7.460986e-01   3.603722e-07   3.681438e-03   2.972982e-10   1472962
  7.588478e-01   3.641519e-07   3.678790e-03   2.953066e-10   1522954
  7.715908e-01   3.680252e-07   3.677970e-03   2.938838e-10   1573804
  7.843534e-01   3.726999e-07   3.691683e-03   2.917948e-10   1632274
  7.971185e-01   3.767664e-07   3.678939e-03   2.907026e-10   1680226
  8.098559e-01   3.805277e-07   3.674931e-03   2.897847e-10   1732682
  8.226044e-01   3.848461e-07   3.684362e-03   2.875283e-10   1792204
  8.353683e-01   3.892558e-07   3.685360e-03   2.862967e-10   1848298
  8.481180e-01   3.929550e-07   3.676906e-03   2.858322e-10   1901050
  8.608642e-01   3.964235e-07   3.681435e-03   2.828901e-10   1961326
  8.736200e-01   3.999325e-07   3.682643e-03   2.820450e-10   2020312
  8.863805e-01   4.046286e-07   3.684838e-03   2.806873e-10   2080930
  8.991420e-01   4.080530e-07   3.683140e-03   2.791463e-10   2140390
  9.118910e-01   4.120536e-07   3.677128e-03   2.784247e-10   2198162
  9.246418e-01   4.153517e-07   3.683722e-03   2.761397e-10   2263864
  9.374012e-01   4.192538e-07   3.683606e-03   2.748207e-10   2326426
  9.501557e-01   4.227148e-07   3.680653e-03   2.733449e-10   2388550
  9.629062e-01   4.256889e-07   3.680356e-03   2.714971e-10   2453098
  9.756546e-01   4.293562e-07   3.679357e-03   2.705805e-10   2517592
  9.884059e-01   4.335738e-07   3.683066e-03   2.702668e-10   2586070
  1.001159e+00   4.363196e-07   3.680738e-03   2.680157e-10   2651842
  1.013911e+00   4.394468e-07   3.680987e-03   2.657072e-10   2720330
  1.026668e+00   4.427873e-07   3.684024e-03   2.653970e-10   2791156
  1.039424e+00   4.461371e-07   3.681208e-03   2.641076e-10   2858554
  1.052176e+00   4.491363e-07   3.681647e-03   2.624500e-10   2929594
  1.064923e+00   4.523042e-07   3.678395e-03   2.611314e-10   2998762
  1.077674e+00   4.550688e-07   3.682468e-03   2.597410e-10   3074188
  1.090422e+00   4.589031e-07   3.678360e-03   2.586330e-10   3143482
  1.103180e+00   4.616719e-07   3.687908e-03   2.569110e-10   3226186
  1.115936e+00   4.643232e-07   3.676634e-03   2.565878e-10   3291158
  1.128688e+00   4.675051e-07   3.685737e-03   2.545733e-10   3375112
  1.141448e+00   4.709109e-07   3.681431e-03   2.537869e-10   3447658
  1.154199e+00   4.732943e-07   3.680732e-03   2.522625e-10   3524626
  1.166950e+00   4.760296e-07   3.680340e-03   2.511576e-10   3602998
  1.179695e+00   4.788438e-07   3.677316e-03   2.496780e-10   3678592
  1.192442e+00   4.811865e-07   3.682841e-03   2.479687e-10   3764122
  1.205202e+00   4.839763e-07   3.684112e-03   2.468982e-10   3846598
  1.217954e+00   4.871616e-07   3.678173e-03   2.458598e-10   3922250
  1.230710e+00   4.894571e-07   3.685590e-03   2.446829e-10   4013032
  1.243470e+00   4.918142e-07   3.681062e-03   2.429573e-10   4091182
  1.256219e+00   4.943523e-07   3.679790e-03   2.421745e-10   4174282
  1.268971e+00   4.969934e-07   3.681900e-03   2.407862e-10   4261978
  1.281726e+00   4.990253e-07   3.682600e-03   2.392077e-10   4348624
  1.294477e+00   5.016693e-07   3.679148e-03   2.382741e-10   4431430
  1.307227e+00   5.036616e-07   3.682586e-03   2.369634e-10   4523290
  1.319983e+00   5.063466e-07   3.681902e-03   2.360119e-10   4611386
  1.332735e+00   5.087836e-07   3.680296e-03   2.349745e-10   4698814
  1.345489e+00   5.110764e-07   3.683391e-03   2.333738e-10   4792984
  1.358246e+00   5.135408e-07   3.682510e-03   2.322878e-10   4883194
  1.370998e+00   5.147789e-07   3.679847e-03   2.310015e-10   4971694
  1.383751e+00   5.167829e-07   3.683258e-03   2.296218e-10   5069434
  1.396503e+00   5.197556e-07   3.679348e-03   2.289270e-10   5157736
  1.409253e+00   5.217053e-07   3.682013e-03   2.279807e-10   5256202
  1.422008e+00   5.234852e-07   3.682033e-03   2.264923e-10   5351990
  1.434759e+00   5.256002e-07   3.679659e-03   2.252842e-10   5444914
  1.447515e+00   5.276352e-07   3.684860e-03   2.238725e-10   5550088
  1.460276e+00   5.298226e-07   3.682696e-03   2.228429e-10   5644774
  1.473027e+00   5.313734e-07   3.679557e-03   2.218943e-10   5739034
  1.485777e+00   5.337436e-07   3.680933e-03   2.209573e-10   5841154
  1.498530e+00   5.352953e-07   3.681993e-03   2.195362e-10   5943448
  1.511286e+00   5.371801e-07   3.682434e-03   2.184396e-10   6045670
  1.524036e+00   5.395220e-07   3.679211e-03   2.176669e-10   6142586
  1.536786e+00   5.409667e-07   3.681853e-03   2.162613e-10   6250738
  1.549543e+00   5.426318e-07   3.683337e-03   2.152796e-10   6357172
  1.562298e+00   5.441077e-07   3.681419e-03   2.140903e-10   6458506
  1.575052e+00   5.460168e-07   3.682170e-03   2.130180e-10   6566290
  1.587803e+00   5.470592e-07   3.679052e-03   2.119967e-10   6667414
  1.600551e+00   5.487062e-07   3.681081e-03   2.106079e-10   6778336
  1.613305e+00   5.507737e-07   3.683166e-03   2.097506e-10   6890218
  1.626056e+00   5.523178e-07   3.679040e-03   2.088802e-10   6992306
  1.638811e+00   5.536463e-07   3.684406e-03   2.077673e-10   7113454
  1.651568e+00   5.554972e-07   3.680582e-03   2.069212e-10   7216216
  1.664317e+00   5.565506e-07   3.680762e-03   2.054430e-10   7328218
  1.677070e+00   5.579015e-07   3.682190e-03   2.045481e-10   7444414
  1.689821e+00   5.589417e-07   3.679673e-03   2.034819e-10   7553290
  1.702576e+00   5.604592e-07   3.684026e-03   2.023175e-10   7676368
  1.715331e+00   5.622100e-07   3.680267e-03   2.016448e-10   7783150
  1.728082e+00   5.631204e-07   3.682357e-03   2.003240e-10   7904570
  1.740836e+00   5.640661e-07   3.680236e-03   1.993435e-10   8017570
  1.753592e+00   5.654949e-07   3.684218e-03   1.981850e-10   8143840
  1.766349e+00   5.670051e-07   3.680993e-03   1.974409e-10   8255134
  1.779097e+00   5.677323e-07   3.679373e-03   1.962299e-10   8371450
  1.791848e+00   5.689452e-07   3.682049e-03   1.953125e-10   8498578
  1.804607e+00   5.702166e-07   3.683747e-03   1.941848e-10   8623180
  1.817364e+00   5.713402e-07   3.682371e-03   1.933442e-10   8742034
  1.830116e+00   5.723619e-07   3.679631e-03   1.923941e-10   8859194
  1.842864e+00   5.730049e-07   3.680027e-03   1.912368e-10   8984386
  1.855615e+00   5.743618e-07   3.681221e-03   1.903280e-10   9111652
  1.868371e+00   5.752622e-07   3.683946e-03   1.891990e-10   9243322
  1.881126e+00   5.759973e-07   3.680271e-03   1.883738e-10   9361378
  1.893877e+00   5.769668e-07   3.681448e-03   1.874373e-10   9491998
  1.906629e+00   5.781675e-07   3.680822e-03   1.864415e-10   9618016
  1.919381e+00   5.791423e-07   3.682003e-03   1.856144e-10   9750178
  1.932133e+00   5.791168e-07   3.680253e-03   1.842985e-10   9875558
  1.944887e+00   5.811408e-07   3.683525e-03   1.836598e-10   10015834
  1.957639e+00   5.809888e-07   3.678626e-03   1.826170e-10   10133344
  1.970392e+00   5.819858e-07   3.684706e-03   1.816273e-10   10282522
  1.983150e+00   5.829208e-07   3.681133e-03   1.807968e-10   10406974
  1.995898e+00   5.829990e-07   3.678810e-03   1.797634e-10   10534378
  2.008651e+00   5.839271e-07   3.684003e-03   1.785712e-10   10684456
  2.021409e+00   5.849572e-07   3.681823e-03   1.778150e-10   10813894
  2.034159e+00   5.853430e-07   3.679680e-03   1.770405e-10   10944626
  2.046911e+00   5.859559e-07   3.682687e-03   1.760328e-10   11091802
  2.059666e+00   5.864748e-07   3.681058e-03   1.751136e-10   11224756
  2.072419e+00   5.867313e-07   3.682125e-03   1.739553e-10   11367730
  2.085174e+00   5.877396e-07   3.681936e-03   1.732562e-10   11507890
  2.097925e+00   5.883170e-07   3.679320e-03   1.724448e-10   11640658
  2.110678e+00   5.886941e-07   3.683383e-03   1.716175e-10   11795380
  2.123435e+00   5.888744e-07   3.682010e-03   1.704736e-10   11933434
  2.136188e+00   5.892614e-07   3.681227e-03   1.696581e-10   12074954
  2.148943e+00   5.900028e-07   3.682833e-03   1.687673e-10   12225142
  2.161693e+00   5.903656e-07   3.678591e-03   1.680264e-10   12356104
  2.174441e+00   5.905682e-07   3.681911e-03   1.669746e-10   12513442
  2.187198e+00   5.912995e-07   3.683046e-03   1.661583e-10   12664810
  2.199955e+00   5.910729e-07   3.682461e-03   1.651532e-10   12811246
  2.212709e+00   5.915694e-07   3.680738e-03   1.642957e-10   12953536
  2.225459e+00   5.920682e-07   3.681278e-03   1.636930e-10   13105042
  2.238213e+00   5.919703e-07   3.681995e-03   1.625418e-10   13258670
  2.250966e+00   5.924683e-07   3.681453e-03   1.619258e-10   13408738
  2.263720e+00   5.925654e-07   3.681812e-03   1.609107e-10   13562320
  2.276472e+00   5.929469e-07   3.680281e-03   1.603085e-10   13709062
  2.289223e+00   5.926873e-07   3.682002e-03   1.590634e-10   13870258
  2.301982e+00   5.928122e-07   3.683866e-03   1.582717e-10   14032714
  2.314735e+00   5.931481e-07   3.678901e-03   1.576728e-10   14169232
  2.327485e+00   5.933852e-07   3.682472e-03   1.568039e-10   14339422
  2.340238e+00   5.931831e-07   3.680575e-03   1.558434e-10   14489330
  2.352991e+00   5.932348e-07   3.682051e-03   1.549406e-10   14654458
  2.365744e+00   5.933325e-07   3.680808e-03   1.543484e-10   14808292
  2.378495e+00   5.933682e-07   3.681362e-03   1.533602e-10   14970130
  2.391248e+00   5.936389e-07   3.681409e-03   1.526713e-10   15131626
  2.403999e+00   5.935445e-07   3.680405e-03   1.518447e-10   15289198
  2.416755e+00   5.937778e-07   3.683835e-03   1.510202e-10   15466552
  2.429511e+00   5.933893e-07   3.680792e-03   1.501578e-10   15616714
  2.442261e+00   5.932819e-07   3.680631e-03   1.494583e-10   15780506
  2.455014e+00   5.931751e-07   3.682312e-03   1.485791e-10   15953542
  2.467771e+00   5.934884e-07   3.682809e-03   1.478108e-10   16121296
  2.480521e+00   5.931226e-07   3.678892e-03   1.471565e-10   16270762
  2.493272e+00   5.925472e-07   3.683074e-03   1.461243e-10   16457182
  2.506029e+00   5.926810e-07   3.682337e-03   1.453699e-10   16623562
  2.518783e+00   5.922587e-07   3.680725e-03   1.445216e-10   16785784
  2.531534e+00   5.924985e-07   3.681653e-03   1.438871e-10   16959370
  2.544288e+00   5.922177e-07   3.682022e-03   1.430866e-10   17132774
  2.557041e+00   5.912833e-07   3.680981e-03   1.422428e-10   17300602
  2.569795e+00   5.909498e-07   3.682396e-03   1.413229e-10   17480656
  2.582549e+00   5.908667e-07   3.681028e-03   1.407134e-10   17647558
  2.595301e+00   5.905574e-07   3.681358e-03   1.399320e-10   17823778
  2.608054e+00   5.907760e-07   3.681613e-03   1.391973e-10   18001594
  2.620806e+00   5.903087e-07   3.680526e-03   1.384557e-10   18172300
  2.633559e+00   5.895719e-07   3.682066e-03   1.376630e-10   18356770
  2.646316e+00   5.892882e-07   3.683321e-03   1.369483e-10   18541082
  2.659073e+00   5.889976e-07   3.681934e-03   1.361428e-10   18713914
  2.671823e+00   5.884816e-07   3.679083e-03   1.355094e-10   18879742
  2.684574e+00   5.878549e-07   3.682617e-03   1.345899e-10   19077592
  2.697329e+00   5.876037e-07   3.681921e-03   1.338108e-10   19255474
  2.710083e+00   5.870457e-07   3.681561e-03   1.331183e-10   19436278
  2.722832e+00   5.867306e-07   3.678954e-03   1.325418e-10   19605994
  2.735585e+00   5.863278e-07   3.684099e-03   1.317674e-10   19817344
  2.748342e+00   5.861465e-07   3.681109e-03   1.310665e-10   19985702
  2.761094e+00   5.848113e-07   3.681644e-03   1.302009e-10   20175730
  2.773845e+00   5.844758e-07   3.679912e-03   1.295595e-10   20352682
  2.786598e+00   5.841692e-07   3.683498e-03   1.288831e-10   20559616
  2.799356e+00   5.834159e-07   3.682280e-03   1.280982e-10   20741518
  2.812105e+00   5.831387e-07   3.678894e-03   1.275237e-10   20912026
  2.824855e+00   5.822292e-07   3.682015e-03   1.266715e-10   21121018
  2.837610e+00   5.815768e-07   3.681802e-03   1.260071e-10   21310012
  2.850362e+00   5.809355e-07   3.680813e-03   1.253243e-10   21496154
  2.863118e+00   5.804039e-07   3.683473e-03   1.245726e-10   21705946
  2.875873e+00   5.796153e-07   3.680669e-03   1.238326e-10   21882562
  2.888626e+00   5.789759e-07   3.682162e-03   1.231878e-10   22085428
  2.901384e+00   5.782439e-07   3.683214e-03   1.224951e-10   22287106
  2.914134e+00   5.772925e-07   3.678437e-03   1.218676e-10   22455010
  2.926883e+00   5.770638e-07   3.681607e-03   1.212330e-10   22671694
  2.939638e+00   5.759734e-07   3.682507e-03   1.204416e-10   22874368
  2.952394e+00   5.753751e-07   3.682002e-03   1.198320e-10   23070146
  2.965147e+00   5.746696e-07   3.681033e-03   1.192129e-10   23264038
  2.977898e+00   5.737707e-07   3.680981e-03   1.184500e-10   23464210
  2.990653e+00   5.729264e-07   3.683188e-03   1.177192e-10   23679208
  3.003408e+00   5.722413e-07   3.681184e-03   1.171594e-10   23868658
  3.016160e+00   5.710397e-07   3.680900e-03   1.164428e-10   24070582
  3.028912e+00   5.705987e-07   3.681593e-03   1.158102e-10   24278842
  3.041665e+00   5.693905e-07   3.681417e-03   1.151059e-10   24482272
  3.054418e+00   5.684763e-07   3.681719e-03   1.144508e-10   24689510
  3.067171e+00   5.678744e-07   3.681372e-03   1.138498e-10   24894634
  3.079925e+00   5.670799e-07   3.682228e-03   1.132001e-10   25108474
  3.092680e+00   5.657303e-07   3.681825e-03   1.124379e-10   25313116
  3.105433e+00   5.650947e-07   3.680868e-03   1.119066e-10   25515970
  3.118184e+00   5.642077e-07   3.681155e-03   1.112028e-10   25727962
  3.130938e+00   5.630509e-07   3.682510e-03   1.105350e-10   25948954
  3.143694e+00   5.621402e-07   3.682026e-03   1.099448e-10   26157220
  3.156445e+00   5.612679e-07   3.679581e-03   1.093536e-10   26351546
  3.169196e+00   5.604166e-07   3.682249e-03   1.087386e-10   26585314
  3.181952e+00   5.593693e-07   3.682365e-03   1.080582e-10   26800630
  3.194706e+00   5.582886e-07   3.680714e-03   1.074810e-10   27003376
  3.207455e+00   5.571480e-07   3.679962e-03   1.068670e-10   27213202
  3.220208e+00   5.558636e-07   3.683357e-03   1.061066e-10   27455194
  3.232966e+00   5.549963e-07   3.682253e-03   1.055148e-10   27666070
  3.245719e+00   5.543855e-07   3.680401e-03   1.049888e-10   27870280
  3.258468e+00   5.527720e-07   3.680260e-03   1.042819e-10   28088090
  3.271220e+00   5.517527e-07   3.682540e-03   1.036704e-10   28326262
  3.283977e+00   5.510650e-07   3.682410e-03   1.031240e-10   28546906
  3.296732e+00   5.499169e-07   3.681571e-03   1.025460e-10   28762552
  3.309484e+00   5.488205e-07   3.681027e-03   1.019897e-10   28979734
  3.322237e+00   5.473414e-07   3.681948e-03   1.012859e-10   29211106
  3.334990e+00   5.465829e-07   3.681286e-03   1.007755e-10   29431738
  3.347741e+00   5.455524e-07   3.680281e-03   1.002002e-10   29648776
  3.360493e+00   5.441875e-07   3.682059e-03   9.956799e-11   29888654
  3.373249e+00   5.431505e-07   3.682995e-03   9.897615e-11   30123490
  3.386003e+00   5.418352e-07   3.680742e-03   9.840801e-11   30334570
  3.398755e+00   5.407707e-07   3.681166e-03   9.785123e-11   30566524
  3.411507e+00   5.396565e-07   3.681508e-03   9.723004e-11   30798370
  3.424265e+00   5.383352e-07   3.684101e-03   9.661190e-11   31052026
  3.437018e+00   5.373902e-07   3.679094e-03   9.616881e-11   31241782
  3.449769e+00   5.362198e-07   3.682408e-03   9.552961e-11   31502128
  3.462523e+00   5.349272e-07   3.680952e-03   9.499574e-11   31721474
  3.475274e+00   5.336278e-07   3.681379e-03   9.443072e-11   31960210
  3.488028e+00   5.322408e-07   3.681819e-03   9.381574e-11   32200582
  3.500782e+00   5.310244e-07   3.681186e-03   9.323413e-11   32429512
  3.513537e+00   5.298688e-07   3.683389e-03   9.266932e-11   32685226
  3.526292e+00   5.285043e-07   3.680900e-03   9.216994e-11   32900830
  3.539043e+00   5.275460e-07   3.680394e-03   9.166920e-11   33135682
  3.551794e+00   5.258494e-07   3.681624e-03   9.098653e-11   33385288
  3.564548e+00   5.248397e-07   3.681804e-03   9.051827e-11   33625706
  3.577303e+00   5.235585e-07   3.682363e-03   8.992946e-11   33873550
  3.590054e+00   5.221167e-07   3.679768e-03   8.940700e-11   34091770
  3.602807e+00   5.208248e-07   3.682821e-03   8.888613e-11   34362160
