# power spectrum of delta
# redshift z=96.269261
# k              Pk             sigma(k)       sigma(Pk)      count
  9.713012e-03   2.494133e-07   2.406229e-03   2.898530e-08   146
  2.072432e-02   2.230693e-06   3.528511e-03   7.839959e-08   1042
  3.284725e-02   6.297958e-06   3.519819e-03   1.270160e-07   2698
  4.516399e-02   1.206107e-05   3.571852e-03   1.714052e-07   5206
  5.773095e-02   2.062441e-05   3.674394e-03   2.327276e-07   8752
  7.053126e-02   3.216822e-05   3.718866e-03   2.829617e-07   13258
  8.325183e-02   4.301953e-05   3.633038e-03   3.230141e-07   18070
  9.586244e-02   5.083133e-05   3.646001e-03   3.281729e-07   24050
  1.086731e-01   6.063164e-05   3.743375e-03   3.414651e-07   31720
  1.214673e-01   7.587679e-05   3.655693e-03   3.845740e-07   38722
  1.341503e-01   9.028359e-05   3.664149e-03   4.191536e-07   47398
  1.468737e-01   1.001836e-04   3.676840e-03   4.187303e-07   56986
  1.596345e-01   1.074940e-04   3.691904e-03   4.166922e-07   67552
  1.723758e-01   1.198407e-04   3.670421e-03   4.289713e-07   78310
  1.850973e-01   1.342487e-04   3.676755e-03   4.495428e-07   90514
  1.978078e-01   1.507421e-04   3.661019e-03   4.746169e-07   102938
  2.105352e-01   1.580641e-04   3.688328e-03   4.619111e-07   117412
  2.233038e-01   1.671990e-04   3.687633e-03   4.597067e-07   132106
  2.360543e-01   1.775040e-04   3.674616e-03   4.632168e-07   147154
  2.487863e-01   1.910586e-04   3.675727e-03   4.728551e-07   163522
  2.615607e-01   2.053755e-04   3.698362e-03   4.820197e-07   181804
  2.742948e-01   2.146614e-04   3.657995e-03   4.861400e-07   197722
  2.870326e-01   2.219100e-04   3.695982e-03   4.739127e-07   218866
  2.998036e-01   2.339387e-04   3.677083e-03   4.797846e-07   237542
  3.125403e-01   2.453530e-04   3.676719e-03   4.833042e-07   258136
  3.252883e-01   2.576740e-04   3.682574e-03   4.880824e-07   280066
  3.380302e-01   2.662655e-04   3.674707e-03   4.861520e-07   301774
  3.507809e-01   2.746407e-04   3.685866e-03   4.802559e-07   326050
  3.635453e-01   2.846492e-04   3.682723e-03   4.827814e-07   349792
  3.763059e-01   2.956230e-04   3.686387e-03   4.846114e-07   375154
  3.890549e-01   3.058596e-04   3.673994e-03   4.863650e-07   399742
  4.017814e-01   3.168887e-04   3.673301e-03   4.856784e-07   426266
  4.145262e-01   3.243646e-04   3.683104e-03   4.816181e-07   454960
  4.272780e-01   3.333609e-04   3.679614e-03   4.801152e-07   482734
  4.400302e-01   3.433939e-04   3.684412e-03   4.799106e-07   512746
  4.527916e-01   3.535036e-04   3.682552e-03   4.797948e-07   542746
  4.655520e-01   3.602211e-04   3.684426e-03   4.756086e-07   573952
  4.783045e-01   3.688646e-04   3.678870e-03   4.770773e-07   604918
  4.910489e-01   3.787299e-04   3.679488e-03   4.747621e-07   637666
  5.038054e-01   3.862492e-04   3.685840e-03   4.701195e-07   672482
  5.165640e-01   3.966605e-04   3.679909e-03   4.721594e-07   705748
  5.293052e-01   4.042357e-04   3.678052e-03   4.686617e-07   740482
  5.420630e-01   4.120257e-04   3.688653e-03   4.661476e-07   779026
  5.548129e-01   4.192682e-04   3.672495e-03   4.650640e-07   812614
  5.675646e-01   4.279111e-04   3.688923e-03   4.633069e-07   854200
  5.803275e-01   4.367042e-04   3.679836e-03   4.629915e-07   890746
  5.930743e-01   4.448562e-04   3.680017e-03   4.604609e-07   930394
  6.058234e-01   4.532584e-04   3.680076e-03   4.608879e-07   970982
  6.185756e-01   4.609669e-04   3.681715e-03   4.583286e-07   1012600
  6.313355e-01   4.684934e-04   3.685773e-03   4.567617e-07   1055890
  6.440885e-01   4.763083e-04   3.677546e-03   4.569426e-07   1096630
  6.568331e-01   4.830721e-04   3.679931e-03   4.526444e-07   1141378
  6.695858e-01   4.906138e-04   3.681602e-03   4.510063e-07   1186552
  6.823378e-01   4.981608e-04   3.681238e-03   4.494076e-07   1231798
  6.950926e-01   5.050629e-04   3.683520e-03   4.476980e-07   1279234
  7.078494e-01   5.128636e-04   3.681308e-03   4.461583e-07   1325906
  7.206034e-01   5.203717e-04   3.681998e-03   4.445216e-07   1374352
  7.333523e-01   5.267473e-04   3.678754e-03   4.426116e-07   1421950
  7.460986e-01   5.354362e-04   3.681438e-03   4.417716e-07   1472962
  7.588478e-01   5.415394e-04   3.678790e-03   4.392016e-07   1522954
  7.715908e-01   5.478717e-04   3.677970e-03   4.374651e-07   1573804
  7.843534e-01   5.553466e-04   3.691683e-03   4.347678e-07   1632274
  7.971185e-01   5.619521e-04   3.678939e-03   4.335591e-07   1680226
  8.098559e-01   5.681521e-04   3.674931e-03   4.327387e-07   1732682
  8.226044e-01   5.751584e-04   3.684362e-03   4.297502e-07   1792204
  8.353683e-01   5.824277e-04   3.685360e-03   4.283627e-07   1848298
  8.481180e-01   5.886245e-04   3.676906e-03   4.281176e-07   1901050
  8.608642e-01   5.945167e-04   3.681435e-03   4.242824e-07   1961326
  8.736200e-01   6.003423e-04   3.682643e-03   4.234024e-07   2020312
  8.863805e-01   6.081276e-04   3.684838e-03   4.218787e-07   2080930
  8.991420e-01   6.139452e-04   3.683140e-03   4.199883e-07   2140390
  9.118910e-01   6.207073e-04   3.677128e-03   4.194525e-07   2198162
  9.246418e-01   6.263923e-04   3.683722e-03   4.164789e-07   2263864
  9.374012e-01   6.330561e-04   3.683606e-03   4.149812e-07   2326426
  9.501557e-01   6.390811e-04   3.680653e-03   4.132926e-07   2388550
  9.629062e-01   6.442627e-04   3.680356e-03   4.108818e-07   2453098
  9.756546e-01   6.506416e-04   3.679357e-03   4.100771e-07   2517592
  9.884059e-01   6.578314e-04   3.683066e-03   4.100328e-07   2586070
  1.001159e+00   6.628632e-04   3.680738e-03   4.071650e-07   2651842
  1.013911e+00   6.684856e-04   3.680987e-03   4.042656e-07   2720330
  1.026668e+00   6.745069e-04   3.684024e-03   4.042706e-07   2791156
  1.039424e+00   6.804530e-04   3.681208e-03   4.028377e-07   2858554
  1.052176e+00   6.859451e-04   3.681647e-03   4.007225e-07   2929594
  1.064923e+00   6.916818e-04   3.678395e-03   3.992890e-07   2998762
  1.077674e+00   6.969942e-04   3.682468e-03   3.978485e-07   3074188
  1.090422e+00   7.037811e-04   3.678360e-03   3.966895e-07   3143482
  1.103180e+00   7.089886e-04   3.687908e-03   3.945856e-07   3226186
  1.115936e+00   7.141306e-04   3.676634e-03   3.946038e-07   3291158
  1.128688e+00   7.200374e-04   3.685737e-03   3.920638e-07   3375112
  1.141448e+00   7.262449e-04   3.681431e-03   3.913353e-07   3447658
  1.154199e+00   7.310169e-04   3.680732e-03   3.896654e-07   3524626
  1.166950e+00   7.363638e-04   3.680340e-03   3.884600e-07   3602998
  1.179695e+00   7.418915e-04   3.677316e-03   3.868357e-07   3678592
  1.192442e+00   7.466592e-04   3.682841e-03   3.847357e-07   3764122
  1.205202e+00   7.519631e-04   3.684112e-03   3.835898e-07   3846598
  1.217954e+00   7.582212e-04   3.678173e-03   3.826419e-07   3922250
  1.230710e+00   7.628626e-04   3.685590e-03   3.813450e-07   4013032
  1.243470e+00   7.678185e-04   3.681062e-03   3.792835e-07   4091182
  1.256219e+00   7.730174e-04   3.679790e-03   3.786943e-07   4174282
  1.268971e+00   7.782981e-04   3.681900e-03   3.770664e-07   4261978
  1.281726e+00   7.827990e-04   3.682600e-03   3.752336e-07   4348624
  1.294477e+00   7.882472e-04   3.679148e-03   3.744020e-07   4431430
  1.307227e+00   7.926331e-04   3.682586e-03   3.729598e-07   4523290
  1.319983e+00   7.983252e-04   3.681902e-03   3.721085e-07   4611386
  1.332735e+00   8.035151e-04   3.680296e-03   3.710613e-07   4698814
  1.345489e+00   8.084031e-04   3.683391e-03   3.691507e-07   4792984
  1.358246e+00   8.137102e-04   3.682510e-03   3.680682e-07   4883194
  1.370998e+00   8.170727e-04   3.679847e-03   3.666148e-07   4971694
  1.383751e+00   8.217862e-04   3.683258e-03   3.651938e-07   5069434
  1.396503e+00   8.279116e-04   3.679348e-03   3.646870e-07   5157736
  1.409253e+00   8.324859e-04   3.682013e-03   3.637999e-07   5256202
  1.422008e+00   8.368337e-04   3.682033e-03   3.620708e-07   5351990
  1.434759e+00   8.417091e-04   3.679659e-03   3.607415e-07   5444914
  1.447515e+00   8.466036e-04   3.684860e-03   3.592169e-07   5550088
  1.460276e+00   8.516045e-04   3.682696e-03   3.581727e-07   5644774
  1.473027e+00   8.558164e-04   3.679557e-03   3.573568e-07   5739034
  1.485777e+00   8.611672e-04   3.680933e-03   3.564950e-07   5841154
  1.498530e+00   8.652774e-04   3.681993e-03   3.548533e-07   5943448
  1.511286e+00   8.699797e-04   3.682434e-03   3.537565e-07   6045670
  1.524036e+00   8.754358e-04   3.679211e-03   3.531656e-07   6142586
  1.536786e+00   8.794793e-04   3.681853e-03   3.515914e-07   6250738
  1.549543e+00   8.839309e-04   3.683337e-03   3.506782e-07   6357172
  1.562298e+00   8.881686e-04   3.681419e-03   3.494371e-07   6458506
  1.575052e+00   8.931149e-04   3.682170e-03   3.484226e-07   6566290
  1.587803e+00   8.964092e-04   3.679052e-03   3.473026e-07   6667414
  1.600551e+00   9.010153e-04   3.681081e-03   3.458146e-07   6778336
  1.613305e+00   9.063189e-04   3.683166e-03   3.451113e-07   6890218
  1.626056e+00   9.106973e-04   3.679040e-03   3.444830e-07   6992306
  1.638811e+00   9.147743e-04   3.684406e-03   3.433020e-07   7113454
  1.651568e+00   9.196697e-04   3.680582e-03   3.425621e-07   7216216
  1.664317e+00   9.234256e-04   3.680762e-03   3.408937e-07   7328218
  1.677070e+00   9.276127e-04   3.682190e-03   3.401504e-07   7444414
  1.689821e+00   9.314248e-04   3.679673e-03   3.390617e-07   7553290
  1.702576e+00   9.357655e-04   3.684026e-03   3.377284e-07   7676368
  1.715331e+00   9.409179e-04   3.680267e-03   3.375310e-07   7783150
  1.728082e+00   9.443835e-04   3.682357e-03   3.359867e-07   7904570
  1.740836e+00   9.480498e-04   3.680236e-03   3.350856e-07   8017570
  1.753592e+00   9.525866e-04   3.684218e-03   3.338580e-07   8143840
  1.766349e+00   9.570978e-04   3.680993e-03   3.332139e-07   8255134
  1.779097e+00   9.605892e-04   3.679373e-03   3.320386e-07   8371450
  1.791848e+00   9.648652e-04   3.682049e-03   3.312427e-07   8498578
  1.804607e+00   9.692711e-04   3.683747e-03   3.300918e-07   8623180
  1.817364e+00   9.732931e-04   3.682371e-03   3.293510e-07   8742034
  1.830116e+00   9.773269e-04   3.679631e-03   3.285044e-07   8859194
  1.842864e+00   9.806699e-04   3.680027e-03   3.272883e-07   8984386
  1.855615e+00   9.852801e-04   3.681221e-03   3.265044e-07   9111652
  1.868371e+00   9.892044e-04   3.683946e-03   3.253300e-07   9243322
  1.881126e+00   9.927436e-04   3.680271e-03   3.246949e-07   9361378
  1.893877e+00   9.968996e-04   3.681448e-03   3.238729e-07   9491998
  1.906629e+00   1.001150e-03   3.680822e-03   3.228762e-07   9618016
  1.919381e+00   1.005293e-03   3.682003e-03   3.221970e-07   9750178
  1.932133e+00   1.007805e-03   3.680253e-03   3.207094e-07   9875558
  1.944887e+00   1.013778e-03   3.683525e-03   3.204082e-07   10015834
  1.957639e+00   1.016046e-03   3.678626e-03   3.193681e-07   10133344
  1.970392e+00   1.020273e-03   3.684706e-03   3.183463e-07   10282522
  1.983150e+00   1.024471e-03   3.681133e-03   3.177526e-07   10406974
  1.995898e+00   1.027112e-03   3.678810e-03   3.166620e-07   10534378
  2.008651e+00   1.031404e-03   3.684003e-03   3.154329e-07   10684456
  2.021409e+00   1.035901e-03   3.681823e-03   3.149331e-07   10813894
  2.034159e+00   1.039193e-03   3.679680e-03   3.143059e-07   10944626
  2.046911e+00   1.043036e-03   3.682687e-03   3.134095e-07   11091802
  2.059666e+00   1.046558e-03   3.681058e-03   3.125215e-07   11224756
  2.072419e+00   1.049700e-03   3.682125e-03   3.111891e-07   11367730
  2.085174e+00   1.054247e-03   3.681936e-03   3.107455e-07   11507890
  2.097925e+00   1.058065e-03   3.679320e-03   3.101181e-07   11640658
  2.110678e+00   1.061626e-03   3.683383e-03   3.094847e-07   11795380
  2.123435e+00   1.064753e-03   3.682010e-03   3.082789e-07   11933434
  2.136188e+00   1.068280e-03   3.681227e-03   3.076072e-07   12074954
  2.148943e+00   1.072562e-03   3.682833e-03   3.067370e-07   12225142
  2.161693e+00   1.076112e-03   3.678591e-03   3.063305e-07   12356104
  2.174441e+00   1.079378e-03   3.681911e-03   3.051784e-07   12513442
  2.187198e+00   1.083606e-03   3.683046e-03   3.045464e-07   12664810
  2.199955e+00   1.086410e-03   3.682461e-03   3.035592e-07   12811246
  2.212709e+00   1.090213e-03   3.680738e-03   3.027940e-07   12953536
  2.225459e+00   1.094194e-03   3.681278e-03   3.025616e-07   13105042
  2.238213e+00   1.097094e-03   3.681995e-03   3.012846e-07   13258670
  2.250966e+00   1.101008e-03   3.681453e-03   3.009157e-07   13408738
  2.263720e+00   1.104442e-03   3.681812e-03   2.999370e-07   13562320
  2.276472e+00   1.108257e-03   3.680281e-03   2.996340e-07   13709062
  2.289223e+00   1.110990e-03   3.682002e-03   2.981777e-07   13870258
  2.301982e+00   1.114356e-03   3.683866e-03   2.975225e-07   14032714
  2.314735e+00   1.118224e-03   3.678901e-03   2.972751e-07   14169232
  2.327485e+00   1.121896e-03   3.682472e-03   2.964252e-07   14339422
  2.340238e+00   1.124838e-03   3.680575e-03   2.955841e-07   14489330
  2.352991e+00   1.128184e-03   3.682051e-03   2.946912e-07   14654458
  2.365744e+00   1.131721e-03   3.680808e-03   2.943665e-07   14808292
  2.378495e+00   1.135344e-03   3.681362e-03   2.934735e-07   14970130
  2.391248e+00   1.139159e-03   3.681409e-03   2.929380e-07   15131626
  2.403999e+00   1.142156e-03   3.680405e-03   2.921770e-07   15289198
  2.416755e+00   1.146226e-03   3.683835e-03   2.915391e-07   15466552
  2.429511e+00   1.148936e-03   3.680792e-03   2.907564e-07   15616714
  2.442261e+00   1.152344e-03   3.680631e-03   2.903038e-07   15780506
  2.455014e+00   1.155513e-03   3.682312e-03   2.894184e-07   15953542
  2.467771e+00   1.159605e-03   3.682809e-03   2.888278e-07   16121296
  2.480521e+00   1.162509e-03   3.678892e-03   2.884146e-07   16270762
  2.493272e+00   1.165156e-03   3.683074e-03   2.873173e-07   16457182
  2.506029e+00   1.169056e-03   3.682337e-03   2.867268e-07   16623562
  2.518783e+00   1.171743e-03   3.680725e-03   2.859363e-07   16785784
  2.531534e+00   1.175864e-03   3.681653e-03   2.855275e-07   16959370
  2.544288e+00   1.179300e-03   3.682022e-03   2.849815e-07   17132774
  2.557041e+00   1.181192e-03   3.680981e-03   2.841176e-07   17300602
  2.569795e+00   1.184132e-03   3.682396e-03   2.831916e-07   17480656
  2.582549e+00   1.187743e-03   3.681028e-03   2.828634e-07   17647558
  2.595301e+00   1.190912e-03   3.681358e-03   2.821829e-07   17823778
  2.608054e+00   1.195275e-03   3.681613e-03   2.816547e-07   18001594
  2.620806e+00   1.198076e-03   3.680526e-03   2.810099e-07   18172300
  2.633559e+00   1.200778e-03   3.682066e-03   2.804114e-07   18356770
  2.646316e+00   1.204048e-03   3.683321e-03   2.798497e-07   18541082
  2.659073e+00   1.207331e-03   3.681934e-03   2.790782e-07   18713914
  2.671823e+00   1.210368e-03   3.679083e-03   2.786800e-07   18879742
  2.684574e+00   1.213268e-03   3.682617e-03   2.777771e-07   19077592
  2.697329e+00   1.216601e-03   3.681921e-03   2.770494e-07   19255474
  2.710083e+00   1.219677e-03   3.681561e-03   2.765494e-07   19436278
  2.722832e+00   1.223037e-03   3.678954e-03   2.762979e-07   19605994
  2.735585e+00   1.226388e-03   3.684099e-03   2.755886e-07   19817344
  2.748342e+00   1.230236e-03   3.681109e-03   2.750384e-07   19985702
  2.761094e+00   1.231594e-03   3.681644e-03   2.742021e-07   20175730
  2.773845e+00   1.235141e-03   3.679912e-03   2.737812e-07   20352682
  2.786598e+00   1.238590e-03   3.683498e-03   2.732455e-07   20559616
  2.799356e+00   1.241257e-03   3.682280e-03   2.725338e-07   20741518
  2.812105e+00   1.245120e-03   3.678894e-03   2.722813e-07   20912026
  2.824855e+00   1.247601e-03   3.682015e-03   2.714026e-07   21121018
  2.837610e+00   1.250435e-03   3.681802e-03   2.709742e-07   21310012
  2.850362e+00   1.253430e-03   3.680813e-03   2.703714e-07   21496154
  2.863118e+00   1.256836e-03   3.683473e-03   2.697814e-07   21705946
  2.875873e+00   1.259569e-03   3.680669e-03   2.690944e-07   21882562
  2.888626e+00   1.262735e-03   3.682162e-03   2.686363e-07   22085428
  2.901384e+00   1.265614e-03   3.683214e-03   2.680715e-07   22287106
  2.914134e+00   1.268223e-03   3.678437e-03   2.677320e-07   22455010
  2.926883e+00   1.271920e-03   3.681607e-03   2.672277e-07   22671694
  2.939638e+00   1.274231e-03   3.682507e-03   2.664484e-07   22874368
  2.952394e+00   1.277708e-03   3.682002e-03   2.661233e-07   23070146
  2.965147e+00   1.280730e-03   3.681033e-03   2.656914e-07   23264038
  2.977898e+00   1.283575e-03   3.680981e-03   2.649752e-07   23464210
  2.990653e+00   1.286476e-03   3.683188e-03   2.643146e-07   23679208
  3.003408e+00   1.289567e-03   3.681184e-03   2.639937e-07   23868658
  3.016160e+00   1.291420e-03   3.680900e-03   2.633982e-07   24070582
  3.028912e+00   1.295406e-03   3.681593e-03   2.629024e-07   24278842
  3.041665e+00   1.297594e-03   3.681417e-03   2.623239e-07   24482272
  3.054418e+00   1.300396e-03   3.681719e-03   2.617684e-07   24689510
  3.067171e+00   1.303770e-03   3.681372e-03   2.613604e-07   24894634
  3.079925e+00   1.307051e-03   3.682228e-03   2.609073e-07   25108474
  3.092680e+00   1.308878e-03   3.681825e-03   2.601425e-07   25313116
  3.105433e+00   1.312336e-03   3.680868e-03   2.598880e-07   25515970
  3.118184e+00   1.315458e-03   3.681155e-03   2.593128e-07   25727962
  3.130938e+00   1.317473e-03   3.682510e-03   2.586596e-07   25948954
  3.143694e+00   1.320610e-03   3.682026e-03   2.582709e-07   26157220
  3.156445e+00   1.323585e-03   3.679581e-03   2.578489e-07   26351546
  3.169196e+00   1.326664e-03   3.682249e-03   2.574314e-07   26585314
  3.181952e+00   1.329507e-03   3.682365e-03   2.568234e-07   26800630
  3.194706e+00   1.332042e-03   3.680714e-03   2.564253e-07   27003376
  3.207455e+00   1.334601e-03   3.679962e-03   2.559817e-07   27213202
  3.220208e+00   1.336867e-03   3.683357e-03   2.551753e-07   27455194
  3.232966e+00   1.339955e-03   3.682253e-03   2.547503e-07   27666070
  3.245719e+00   1.343803e-03   3.680401e-03   2.544845e-07   27870280
  3.258468e+00   1.345414e-03   3.680260e-03   2.538363e-07   28088090
  3.271220e+00   1.348235e-03   3.682540e-03   2.533108e-07   28326262
  3.283977e+00   1.352035e-03   3.682410e-03   2.530052e-07   28546906
  3.296732e+00   1.354393e-03   3.681571e-03   2.525545e-07   28762552
  3.309484e+00   1.357223e-03   3.681027e-03   2.522111e-07   28979734
  3.322237e+00   1.359181e-03   3.681948e-03   2.514843e-07   29211106
  3.334990e+00   1.362738e-03   3.681286e-03   2.512434e-07   29431738
  3.347741e+00   1.365746e-03   3.680281e-03   2.508445e-07   29648776
  3.360493e+00   1.367988e-03   3.682059e-03   2.502948e-07   29888654
  3.373249e+00   1.370853e-03   3.682995e-03   2.498199e-07   30123490
  3.386003e+00   1.373286e-03   3.680742e-03   2.494227e-07   30334570
  3.398755e+00   1.376419e-03   3.681166e-03   2.490285e-07   30566524
  3.411507e+00   1.379184e-03   3.681508e-03   2.484852e-07   30798370
  3.424265e+00   1.381465e-03   3.684101e-03   2.479069e-07   31052026
  3.437018e+00   1.385026e-03   3.679094e-03   2.478837e-07   31241782
  3.449769e+00   1.387634e-03   3.682408e-03   2.472057e-07   31502128
  3.462523e+00   1.389965e-03   3.680952e-03   2.468422e-07   31721474
  3.475274e+00   1.392600e-03   3.681379e-03   2.464090e-07   31960210
  3.488028e+00   1.394776e-03   3.681819e-03   2.458449e-07   32200582
  3.500782e+00   1.397568e-03   3.681186e-03   2.454124e-07   32429512
  3.513537e+00   1.400602e-03   3.683389e-03   2.449305e-07   32685226
  3.526292e+00   1.403170e-03   3.680900e-03   2.447135e-07   32900830
  3.539043e+00   1.406473e-03   3.680394e-03   2.444046e-07   33135682
  3.551794e+00   1.407996e-03   3.681624e-03   2.436339e-07   33385288
  3.564548e+00   1.411314e-03   3.681804e-03   2.434021e-07   33625706
  3.577303e+00   1.413816e-03   3.682363e-03   2.428313e-07   33873550
  3.590054e+00   1.416177e-03   3.679768e-03   2.425516e-07   34091770
  3.602807e+00   1.418974e-03   3.682821e-03   2.422065e-07   34362160
