# power spectrum of phi
# redshift z=5.978097
# k              Pk             sigma(k)       sigma(Pk)      count
  9.713012e-03   4.464194e-10   2.406229e-03   4.268762e-11   146
  2.072432e-02   2.795675e-10   3.528511e-03   8.799489e-12   1042
  3.284725e-02   1.358887e-10   3.519819e-03   2.920534e-12   2698
  4.516399e-02   7.153590e-11   3.571852e-03   1.012754e-12   5206
  5.773095e-02   4.558488e-11   3.674394e-03   5.103770e-13   8752
  7.053126e-02   3.215170e-11   3.718866e-03   2.853181e-13   13258
  8.325183e-02   2.219033e-11   3.633038e-03   1.691221e-13   18070
  9.586244e-02   1.491954e-11   3.646001e-03   9.727368e-14   24050
  1.086731e-01   1.075076e-11   3.743375e-03   6.049945e-14   31720
  1.214673e-01   8.600160e-12   3.655693e-03   4.373686e-14   38722
  1.341503e-01   6.873322e-12   3.664149e-03   3.195644e-14   47398
  1.468737e-01   5.332277e-12   3.676840e-03   2.239975e-14   56986
  1.596345e-01   4.113585e-12   3.691904e-03   1.599711e-14   67552
  1.723758e-01   3.367938e-12   3.670421e-03   1.204466e-14   78310
  1.850973e-01   2.839409e-12   3.676755e-03   9.517883e-15   90514
  1.978078e-01   2.444981e-12   3.661019e-03   7.719951e-15   102938
  2.105352e-01   2.001167e-12   3.688328e-03   5.863214e-15   117412
  2.233038e-01   1.678305e-12   3.687633e-03   4.630870e-15   132106
  2.360543e-01   1.429130e-12   3.674616e-03   3.728981e-15   147154
  2.487863e-01   1.247895e-12   3.675727e-03   3.094461e-15   163522
  2.615607e-01   1.100612e-12   3.698362e-03   2.592487e-15   181804
  2.742948e-01   9.517844e-13   3.657995e-03   2.158541e-15   197722
  2.870326e-01   8.234145e-13   3.695982e-03   1.765072e-15   218866
  2.998036e-01   7.302936e-13   3.677083e-03   1.502640e-15   237542
  3.125403e-01   6.481991e-13   3.676719e-03   1.278774e-15   258136
  3.252883e-01   5.806592e-13   3.682574e-03   1.100783e-15   280066
  3.380302e-01   5.157319e-13   3.674707e-03   9.418196e-16   301774
  3.507809e-01   4.604455e-13   3.685866e-03   8.073542e-16   326050
  3.635453e-01   4.155540e-13   3.682723e-03   7.049616e-16   349792
  3.763059e-01   3.759968e-13   3.686387e-03   6.159668e-16   375154
  3.890549e-01   3.414013e-13   3.673994e-03   5.425441e-16   399742
  4.017814e-01   3.113178e-13   3.673301e-03   4.790954e-16   426266
  4.145262e-01   2.812374e-13   3.683104e-03   4.181871e-16   454960
  4.272780e-01   2.575492e-13   3.679614e-03   3.711900e-16   482734
  4.400302e-01   2.363647e-13   3.684412e-03   3.306916e-16   512746
  4.527916e-01   2.168681e-13   3.682552e-03   2.947464e-16   542746
  4.655520e-01   1.986911e-13   3.684426e-03   2.628936e-16   573952
  4.783045e-01   1.829890e-13   3.678870e-03   2.364618e-16   604918
  4.910489e-01   1.696316e-13   3.679488e-03   2.130319e-16   637666
  5.038054e-01   1.566412e-13   3.685840e-03   1.909313e-16   672482
  5.165640e-01   1.457631e-13   3.679909e-03   1.739769e-16   705748
  5.293052e-01   1.350836e-13   3.678052e-03   1.567826e-16   740482
  5.420630e-01   1.252938e-13   3.688653e-03   1.415855e-16   779026
  5.548129e-01   1.166286e-13   3.672495e-03   1.292892e-16   812614
  5.675646e-01   1.087583e-13   3.688923e-03   1.177397e-16   854200
  5.803275e-01   1.015657e-13   3.679836e-03   1.076929e-16   890746
  5.930743e-01   9.516048e-14   3.680017e-03   9.871029e-17   930394
  6.058234e-01   8.922261e-14   3.680076e-03   9.055471e-17   970982
  6.185756e-01   8.370166e-14   3.681715e-03   8.328835e-17   1012600
  6.313355e-01   7.871995e-14   3.685773e-03   7.671599e-17   1055890
  6.440885e-01   7.401254e-14   3.677546e-03   7.080123e-17   1096630
  6.568331e-01   6.944415e-14   3.679931e-03   6.496403e-17   1141378
  6.695858e-01   6.544931e-14   3.681602e-03   6.019811e-17   1186552
  6.823378e-01   6.194668e-14   3.681238e-03   5.594685e-17   1231798
  6.950926e-01   5.830945e-14   3.683520e-03   5.172736e-17   1279234
  7.078494e-01   5.517851e-14   3.681308e-03   4.792334e-17   1325906
  7.206034e-01   5.217974e-14   3.681998e-03   4.450731e-17   1374352
  7.333523e-01   4.949754e-14   3.678754e-03   4.145773e-17   1421950
  7.460986e-01   4.697250e-14   3.681438e-03   3.869848e-17   1472962
  7.588478e-01   4.453853e-14   3.678790e-03   3.607385e-17   1522954
  7.715908e-01   4.230982e-14   3.677970e-03   3.370228e-17   1573804
  7.843534e-01   4.013800e-14   3.691683e-03   3.141179e-17   1632274
  7.971185e-01   3.815693e-14   3.678939e-03   2.947926e-17   1680226
  8.098559e-01   3.631165e-14   3.674931e-03   2.763596e-17   1732682
  8.226044e-01   3.453742e-14   3.684362e-03   2.579829e-17   1792204
  8.353683e-01   3.297105e-14   3.685360e-03   2.426725e-17   1848298
  8.481180e-01   3.145109e-14   3.676906e-03   2.284622e-17   1901050
  8.608642e-01   3.000048e-14   3.681435e-03   2.145459e-17   1961326
  8.736200e-01   2.869538e-14   3.682643e-03   2.021788e-17   2020312
  8.863805e-01   2.740975e-14   3.684838e-03   1.904609e-17   2080930
  8.991420e-01   2.619137e-14   3.683140e-03   1.790366e-17   2140390
  9.118910e-01   2.505571e-14   3.677128e-03   1.692180e-17   2198162
  9.246418e-01   2.398980e-14   3.683722e-03   1.595371e-17   2263864
  9.374012e-01   2.298055e-14   3.683606e-03   1.508276e-17   2326426
  9.501557e-01   2.206407e-14   3.680653e-03   1.429924e-17   2388550
  9.629062e-01   2.111273e-14   3.680356e-03   1.347701e-17   2453098
  9.756546e-01   2.025282e-14   3.679357e-03   1.276474e-17   2517592
  9.884059e-01   1.943064e-14   3.683066e-03   1.210301e-17   2586070
  1.001159e+00   1.865711e-14   3.680738e-03   1.146746e-17   2651842
  1.013911e+00   1.796700e-14   3.680987e-03   1.090425e-17   2720330
  1.026668e+00   1.725954e-14   3.684024e-03   1.034140e-17   2791156
  1.039424e+00   1.662129e-14   3.681208e-03   9.833710e-18   2858554
  1.052176e+00   1.597698e-14   3.681647e-03   9.340178e-18   2929594
  1.064923e+00   1.540765e-14   3.678395e-03   8.893769e-18   2998762
  1.077674e+00   1.483148e-14   3.682468e-03   8.470699e-18   3074188
  1.090422e+00   1.428213e-14   3.678360e-03   8.069173e-18   3143482
  1.103180e+00   1.373562e-14   3.687908e-03   7.648894e-18   3226186
  1.115936e+00   1.327835e-14   3.676634e-03   7.318099e-18   3291158
  1.128688e+00   1.280072e-14   3.685737e-03   6.969367e-18   3375112
  1.141448e+00   1.233820e-14   3.681431e-03   6.645841e-18   3447658
  1.154199e+00   1.192630e-14   3.680732e-03   6.355693e-18   3524626
  1.166950e+00   1.151551e-14   3.680340e-03   6.068789e-18   3602998
  1.179695e+00   1.112491e-14   3.677316e-03   5.810647e-18   3678592
  1.192442e+00   1.075596e-14   3.682841e-03   5.548701e-18   3764122
  1.205202e+00   1.038531e-14   3.684112e-03   5.303221e-18   3846598
  1.217954e+00   1.005059e-14   3.678173e-03   5.072396e-18   3922250
  1.230710e+00   9.706820e-15   3.685590e-03   4.842066e-18   4013032
  1.243470e+00   9.407313e-15   3.681062e-03   4.657436e-18   4091182
  1.256219e+00   9.095290e-15   3.679790e-03   4.457086e-18   4174282
  1.268971e+00   8.815067e-15   3.681900e-03   4.273682e-18   4261978
  1.281726e+00   8.531015e-15   3.682600e-03   4.096197e-18   4348624
  1.294477e+00   8.280551e-15   3.679148e-03   3.938401e-18   4431430
  1.307227e+00   8.003969e-15   3.682586e-03   3.768139e-18   4523290
  1.319983e+00   7.764692e-15   3.681902e-03   3.619716e-18   4611386
  1.332735e+00   7.537971e-15   3.680296e-03   3.477239e-18   4698814
  1.345489e+00   7.302465e-15   3.683391e-03   3.341606e-18   4792984
  1.358246e+00   7.097710e-15   3.682510e-03   3.210824e-18   4883194
  1.370998e+00   6.879587e-15   3.679847e-03   3.087650e-18   4971694
  1.383751e+00   6.675287e-15   3.683258e-03   2.969961e-18   5069434
  1.396503e+00   6.486355e-15   3.679348e-03   2.856790e-18   5157736
  1.409253e+00   6.297642e-15   3.682013e-03   2.750592e-18   5256202
  1.422008e+00   6.121082e-15   3.682033e-03   2.649422e-18   5351990
  1.434759e+00   5.947411e-15   3.679659e-03   2.555517e-18   5444914
  1.447515e+00   5.774230e-15   3.684860e-03   2.453606e-18   5550088
  1.460276e+00   5.615643e-15   3.682696e-03   2.368021e-18   5644774
  1.473027e+00   5.462262e-15   3.679557e-03   2.286140e-18   5739034
  1.485777e+00   5.310361e-15   3.680933e-03   2.200876e-18   5841154
  1.498530e+00   5.166129e-15   3.681993e-03   2.124008e-18   5943448
  1.511286e+00   5.031940e-15   3.682434e-03   2.049512e-18   6045670
  1.524036e+00   4.890534e-15   3.679211e-03   1.975323e-18   6142586
  1.536786e+00   4.762904e-15   3.681853e-03   1.908480e-18   6250738
  1.549543e+00   4.639755e-15   3.683337e-03   1.842015e-18   6357172
  1.562298e+00   4.519216e-15   3.681419e-03   1.781801e-18   6458506
  1.575052e+00   4.399983e-15   3.682170e-03   1.720768e-18   6566290
  1.587803e+00   4.285514e-15   3.679052e-03   1.662980e-18   6667414
  1.600551e+00   4.173200e-15   3.681081e-03   1.607183e-18   6778336
  1.613305e+00   4.069324e-15   3.683166e-03   1.553142e-18   6890218
  1.626056e+00   3.966773e-15   3.679040e-03   1.503082e-18   6992306
  1.638811e+00   3.866126e-15   3.684406e-03   1.452826e-18   7113454
  1.651568e+00   3.775148e-15   3.680582e-03   1.407800e-18   7216216
  1.664317e+00   3.679589e-15   3.680762e-03   1.361043e-18   7328218
  1.677070e+00   3.589098e-15   3.682190e-03   1.318726e-18   7444414
  1.689821e+00   3.508431e-15   3.679673e-03   1.279774e-18   7553290
  1.702576e+00   3.413708e-15   3.684026e-03   1.234846e-18   7676368
  1.715331e+00   3.333703e-15   3.680267e-03   1.197233e-18   7783150
  1.728082e+00   3.254894e-15   3.682357e-03   1.159595e-18   7904570
  1.740836e+00   3.175285e-15   3.680236e-03   1.123963e-18   8017570
  1.753592e+00   3.103713e-15   3.684218e-03   1.090262e-18   8143840
  1.766349e+00   3.027971e-15   3.680993e-03   1.057224e-18   8255134
  1.779097e+00   2.959574e-15   3.679373e-03   1.024974e-18   8371450
  1.791848e+00   2.888684e-15   3.682049e-03   9.924910e-19   8498578
  1.804607e+00   2.827235e-15   3.683747e-03   9.652630e-19   8623180
  1.817364e+00   2.760738e-15   3.682371e-03   9.355882e-19   8742034
  1.830116e+00   2.697278e-15   3.679631e-03   9.087210e-19   8859194
  1.842864e+00   2.634535e-15   3.680027e-03   8.823286e-19   8984386
  1.855615e+00   2.578035e-15   3.681221e-03   8.568410e-19   9111652
  1.868371e+00   2.517777e-15   3.683946e-03   8.305837e-19   9243322
  1.881126e+00   2.463731e-15   3.680271e-03   8.079280e-19   9361378
  1.893877e+00   2.409390e-15   3.681448e-03   7.855402e-19   9491998
  1.906629e+00   2.355950e-15   3.680822e-03   7.624830e-19   9618016
  1.919381e+00   2.305668e-15   3.682003e-03   7.412492e-19   9750178
  1.932133e+00   2.254666e-15   3.680253e-03   7.206158e-19   9875558
  1.944887e+00   2.205408e-15   3.683525e-03   6.997792e-19   10015834
  1.957639e+00   2.159943e-15   3.678626e-03   6.811417e-19   10133344
  1.970392e+00   2.114987e-15   3.684706e-03   6.623879e-19   10282522
  1.983150e+00   2.068155e-15   3.681133e-03   6.433696e-19   10406974
  1.995898e+00   2.027428e-15   3.678810e-03   6.271365e-19   10534378
  2.008651e+00   1.984582e-15   3.684003e-03   6.100765e-19   10684456
  2.021409e+00   1.942386e-15   3.681823e-03   5.929866e-19   10813894
  2.034159e+00   1.903102e-15   3.679680e-03   5.771705e-19   10944626
  2.046911e+00   1.864480e-15   3.682687e-03   5.615956e-19   11091802
  2.059666e+00   1.824964e-15   3.681058e-03   5.471978e-19   11224756
  2.072419e+00   1.786875e-15   3.682125e-03   5.322920e-19   11367730
  2.085174e+00   1.751772e-15   3.681936e-03   5.187337e-19   11507890
  2.097925e+00   1.716897e-15   3.679320e-03   5.050664e-19   11640658
  2.110678e+00   1.682380e-15   3.683383e-03   4.919982e-19   11795380
  2.123435e+00   1.648845e-15   3.682010e-03   4.797078e-19   11933434
  2.136188e+00   1.615778e-15   3.681227e-03   4.673148e-19   12074954
  2.148943e+00   1.584418e-15   3.682833e-03   4.553911e-19   12225142
  2.161693e+00   1.552102e-15   3.678591e-03   4.437719e-19   12356104
  2.174441e+00   1.523912e-15   3.681911e-03   4.330496e-19   12513442
  2.187198e+00   1.492602e-15   3.683046e-03   4.214756e-19   12664810
  2.199955e+00   1.465609e-15   3.682461e-03   4.117165e-19   12811246
  2.212709e+00   1.436972e-15   3.680738e-03   4.012817e-19   12953536
  2.225459e+00   1.408750e-15   3.681278e-03   3.914130e-19   13105042
  2.238213e+00   1.382557e-15   3.681995e-03   3.815008e-19   13258670
  2.250966e+00   1.356753e-15   3.681453e-03   3.724540e-19   13408738
  2.263720e+00   1.330308e-15   3.681812e-03   3.632424e-19   13562320
  2.276472e+00   1.306172e-15   3.680281e-03   3.550112e-19   13709062
  2.289223e+00   1.282095e-15   3.682002e-03   3.462031e-19   13870258
  2.301982e+00   1.258422e-15   3.683866e-03   3.379932e-19   14032714
  2.314735e+00   1.234659e-15   3.678901e-03   3.300523e-19   14169232
  2.327485e+00   1.213077e-15   3.682472e-03   3.223239e-19   14339422
  2.340238e+00   1.189397e-15   3.680575e-03   3.143314e-19   14489330
  2.352991e+00   1.168779e-15   3.682051e-03   3.073811e-19   14654458
  2.365744e+00   1.146886e-15   3.680808e-03   3.001001e-19   14808292
  2.378495e+00   1.126704e-15   3.681362e-03   2.931979e-19   14970130
  2.391248e+00   1.106186e-15   3.681409e-03   2.866099e-19   15131626
  2.403999e+00   1.086135e-15   3.680405e-03   2.797217e-19   15289198
  2.416755e+00   1.066708e-15   3.683835e-03   2.730137e-19   15466552
  2.429511e+00   1.048577e-15   3.680792e-03   2.671378e-19   15616714
  2.442261e+00   1.030185e-15   3.680631e-03   2.611829e-19   15780506
  2.455014e+00   1.010925e-15   3.682312e-03   2.548468e-19   15953542
  2.467771e+00   9.936138e-16   3.682809e-03   2.493004e-19   16121296
  2.480521e+00   9.767209e-16   3.678892e-03   2.440159e-19   16270762
  2.493272e+00   9.596919e-16   3.683074e-03   2.384344e-19   16457182
  2.506029e+00   9.430289e-16   3.682337e-03   2.332513e-19   16623562
  2.518783e+00   9.267258e-16   3.680725e-03   2.281391e-19   16785784
  2.531534e+00   9.114335e-16   3.681653e-03   2.232800e-19   16959370
  2.544288e+00   8.958125e-16   3.682022e-03   2.184153e-19   17132774
  2.557041e+00   8.806105e-16   3.680981e-03   2.134160e-19   17300602
  2.569795e+00   8.657901e-16   3.682396e-03   2.089104e-19   17480656
  2.582549e+00   8.508975e-16   3.681028e-03   2.043604e-19   17647558
  2.595301e+00   8.366559e-16   3.681358e-03   1.998408e-19   17823778
  2.608054e+00   8.229312e-16   3.681613e-03   1.957144e-19   18001594
  2.620806e+00   8.089895e-16   3.680526e-03   1.915852e-19   18172300
  2.633559e+00   7.961211e-16   3.682066e-03   1.876915e-19   18356770
  2.646316e+00   7.825735e-16   3.683321e-03   1.835224e-19   18541082
  2.659073e+00   7.698620e-16   3.681934e-03   1.797292e-19   18713914
  2.671823e+00   7.572375e-16   3.679083e-03   1.760296e-19   18879742
  2.684574e+00   7.453336e-16   3.682617e-03   1.723327e-19   19077592
  2.697329e+00   7.332241e-16   3.681921e-03   1.687881e-19   19255474
  2.710083e+00   7.211623e-16   3.681561e-03   1.652536e-19   19436278
  2.722832e+00   7.094527e-16   3.678954e-03   1.619550e-19   19605994
  2.735585e+00   6.979279e-16   3.684099e-03   1.585204e-19   19817344
  2.748342e+00   6.871446e-16   3.681109e-03   1.554518e-19   19985702
  2.761094e+00   6.763813e-16   3.681644e-03   1.522714e-19   20175730
  2.773845e+00   6.653920e-16   3.679912e-03   1.491397e-19   20352682
  2.786598e+00   6.550157e-16   3.683498e-03   1.461480e-19   20559616
  2.799356e+00   6.448907e-16   3.682280e-03   1.432937e-19   20741518
  2.812105e+00   6.345886e-16   3.678894e-03   1.404671e-19   20912026
  2.824855e+00   6.246285e-16   3.682015e-03   1.376035e-19   21121018
  2.837610e+00   6.152331e-16   3.681802e-03   1.349695e-19   21310012
  2.850362e+00   6.056304e-16   3.680813e-03   1.323100e-19   21496154
  2.863118e+00   5.962005e-16   3.683473e-03   1.296106e-19   21705946
  2.875873e+00   5.872213e-16   3.680669e-03   1.271187e-19   21882562
  2.888626e+00   5.779117e-16   3.682162e-03   1.245974e-19   22085428
  2.901384e+00   5.690005e-16   3.683214e-03   1.221620e-19   22287106
  2.914134e+00   5.602241e-16   3.678437e-03   1.198230e-19   22455010
  2.926883e+00   5.524086e-16   3.681607e-03   1.176665e-19   22671694
  2.939638e+00   5.436676e-16   3.682507e-03   1.152343e-19   22874368
  2.952394e+00   5.354645e-16   3.682002e-03   1.130719e-19   23070146
  2.965147e+00   5.275315e-16   3.681033e-03   1.109987e-19   23264038
  2.977898e+00   5.195332e-16   3.680981e-03   1.088149e-19   23464210
  2.990653e+00   5.120507e-16   3.683188e-03   1.067821e-19   23679208
  3.003408e+00   5.041759e-16   3.681184e-03   1.047590e-19   23868658
  3.016160e+00   4.968688e-16   3.680900e-03   1.027831e-19   24070582
  3.028912e+00   4.894597e-16   3.681593e-03   1.009390e-19   24278842
  3.041665e+00   4.824245e-16   3.681417e-03   9.903162e-20   24482272
  3.054418e+00   4.753473e-16   3.681719e-03   9.718386e-20   24689510
  3.067171e+00   4.684672e-16   3.681372e-03   9.544686e-20   24894634
  3.079925e+00   4.617996e-16   3.682228e-03   9.373431e-20   25108474
  3.092680e+00   4.548898e-16   3.681825e-03   9.196912e-20   25313116
  3.105433e+00   4.484328e-16   3.680868e-03   9.028451e-20   25515970
  3.118184e+00   4.418461e-16   3.681155e-03   8.859483e-20   25727962
  3.130938e+00   4.357228e-16   3.682510e-03   8.704660e-20   25948954
  3.143694e+00   4.296166e-16   3.682026e-03   8.547070e-20   26157220
  3.156445e+00   4.233972e-16   3.679581e-03   8.399249e-20   26351546
  3.169196e+00   4.173687e-16   3.682249e-03   8.240925e-20   26585314
  3.181952e+00   4.115938e-16   3.682365e-03   8.096567e-20   26800630
  3.194706e+00   4.056637e-16   3.680714e-03   7.955519e-20   27003376
  3.207455e+00   3.999521e-16   3.679962e-03   7.811774e-20   27213202
  3.220208e+00   3.945367e-16   3.683357e-03   7.677768e-20   27455194
  3.232966e+00   3.889830e-16   3.682253e-03   7.540893e-20   27666070
  3.245719e+00   3.833152e-16   3.680401e-03   7.405956e-20   27870280
  3.258468e+00   3.782743e-16   3.680260e-03   7.280309e-20   28088090
  3.271220e+00   3.729309e-16   3.682540e-03   7.150617e-20   28326262
  3.283977e+00   3.678751e-16   3.682410e-03   7.029487e-20   28546906
  3.296732e+00   3.628524e-16   3.681571e-03   6.907861e-20   28762552
  3.309484e+00   3.577573e-16   3.681027e-03   6.786934e-20   28979734
  3.322237e+00   3.528266e-16   3.681948e-03   6.672693e-20   29211106
  3.334990e+00   3.482604e-16   3.681286e-03   6.559299e-20   29431738
  3.347741e+00   3.435306e-16   3.680281e-03   6.448513e-20   29648776
  3.360493e+00   3.389431e-16   3.682059e-03   6.340490e-20   29888654
  3.373249e+00   3.340628e-16   3.682995e-03   6.227455e-20   30123490
  3.386003e+00   3.297335e-16   3.680742e-03   6.127961e-20   30334570
  3.398755e+00   3.253105e-16   3.681166e-03   6.024154e-20   30566524
  3.411507e+00   3.211316e-16   3.681508e-03   5.927802e-20   30798370
  3.424265e+00   3.168368e-16   3.684101e-03   5.822874e-20   31052026
  3.437018e+00   3.126195e-16   3.679094e-03   5.730853e-20   31241782
  3.449769e+00   3.084044e-16   3.682408e-03   5.628902e-20   31502128
  3.462523e+00   3.044227e-16   3.680952e-03   5.541735e-20   31721474
  3.475274e+00   3.004470e-16   3.681379e-03   5.448684e-20   31960210
  3.488028e+00   2.964402e-16   3.681819e-03   5.358868e-20   32200582
  3.500782e+00   2.925027e-16   3.681186e-03   5.272288e-20   32429512
  3.513537e+00   2.888834e-16   3.683389e-03   5.187289e-20   32685226
  3.526292e+00   2.852455e-16   3.680900e-03   5.107423e-20   32900830
  3.539043e+00   2.813860e-16   3.680394e-03   5.023565e-20   33135682
  3.551794e+00   2.777309e-16   3.681624e-03   4.942457e-20   33385288
  3.564548e+00   2.742152e-16   3.681804e-03   4.862535e-20   33625706
  3.577303e+00   2.707580e-16   3.682363e-03   4.786328e-20   33873550
  3.590054e+00   2.672916e-16   3.679768e-03   4.712034e-20   34091770
  3.602807e+00   2.637887e-16   3.682821e-03   4.632659e-20   34362160
