# power spectrum of pi_k * H (dimensionless)
# redshift z=2.976793
# k              Pk             sigma(k)       sigma(Pk)      count
  9.713012e-03   2.043705e-10   2.406229e-03   1.954206e-11   146
  2.072432e-02   1.279341e-10   3.528511e-03   4.027234e-12   1042
  3.284725e-02   6.212073e-11   3.519819e-03   1.335365e-12   2698
  4.516399e-02   3.264798e-11   3.571852e-03   4.622431e-13   5206
  5.773095e-02   2.075498e-11   3.674394e-03   2.323849e-13   8752
  7.053126e-02   1.459638e-11   3.718866e-03   1.295778e-13   13258
  8.325183e-02   1.004109e-11   3.633038e-03   7.655186e-14   18070
  9.586244e-02   6.725746e-12   3.646001e-03   4.386466e-14   24050
  1.086731e-01   4.825033e-12   3.743375e-03   2.715954e-14   31720
  1.214673e-01   3.839448e-12   3.655693e-03   1.953076e-14   38722
  1.341503e-01   3.050987e-12   3.664149e-03   1.418800e-14   47398
  1.468737e-01   2.352816e-12   3.676840e-03   9.886254e-15   56986
  1.596345e-01   1.803409e-12   3.691904e-03   7.014934e-15   67552
  1.723758e-01   1.465840e-12   3.670421e-03   5.242698e-15   78310
  1.850973e-01   1.225968e-12   3.676755e-03   4.110754e-15   90514
  1.978078e-01   1.046845e-12   3.661019e-03   3.306204e-15   102938
  2.105352e-01   8.491845e-13   3.688328e-03   2.488799e-15   117412
  2.233038e-01   7.056253e-13   3.687633e-03   1.947659e-15   132106
  2.360543e-01   5.950175e-13   3.674616e-03   1.552621e-15   147154
  2.487863e-01   5.140579e-13   3.675727e-03   1.275024e-15   163522
  2.615607e-01   4.484506e-13   3.698362e-03   1.056777e-15   181804
  2.742948e-01   3.833874e-13   3.657995e-03   8.697314e-16   197722
  2.870326e-01   3.278098e-13   3.695982e-03   7.030609e-16   218866
  2.998036e-01   2.870840e-13   3.677083e-03   5.908465e-16   237542
  3.125403e-01   2.514508e-13   3.676719e-03   4.961153e-16   258136
  3.252883e-01   2.221678e-13   3.682574e-03   4.213767e-16   280066
  3.380302e-01   1.947059e-13   3.674707e-03   3.555963e-16   301774
  3.507809e-01   1.713375e-13   3.685866e-03   3.006728e-16   326050
  3.635453e-01   1.523330e-13   3.682723e-03   2.584090e-16   349792
  3.763059e-01   1.357419e-13   3.686387e-03   2.225218e-16   375154
  3.890549e-01   1.213064e-13   3.673994e-03   1.927595e-16   399742
  4.017814e-01   1.088121e-13   3.673301e-03   1.675184e-16   426266
  4.145262e-01   9.669761e-14   3.683104e-03   1.438348e-16   454960
  4.272780e-01   8.708080e-14   3.679614e-03   1.255098e-16   482734
  4.400302e-01   7.851118e-14   3.684412e-03   1.098552e-16   512746
  4.527916e-01   7.071656e-14   3.682552e-03   9.616879e-17   542746
  4.655520e-01   6.365099e-14   3.684426e-03   8.421447e-17   573952
  4.783045e-01   5.755122e-14   3.678870e-03   7.435969e-17   604918
  4.910489e-01   5.233434e-14   3.679488e-03   6.574865e-17   637666
  5.038054e-01   4.741348e-14   3.685840e-03   5.781514e-17   672482
  5.165640e-01   4.324564e-14   3.679909e-03   5.164480e-17   705748
  5.293052e-01   3.929497e-14   3.678052e-03   4.564513e-17   740482
  5.420630e-01   3.569284e-14   3.688653e-03   4.033766e-17   779026
  5.548129e-01   3.257096e-14   3.672495e-03   3.611640e-17   812614
  5.675646e-01   2.971769e-14   3.688923e-03   3.218371e-17   854200
  5.803275e-01   2.717948e-14   3.679836e-03   2.882064e-17   890746
  5.930743e-01   2.491893e-14   3.680017e-03   2.585575e-17   930394
  6.058234e-01   2.285584e-14   3.680076e-03   2.320085e-17   970982
  6.185756e-01   2.098000e-14   3.681715e-03   2.090014e-17   1012600
  6.313355e-01   1.929433e-14   3.685773e-03   1.881151e-17   1055890
  6.440885e-01   1.773503e-14   3.677546e-03   1.696800e-17   1096630
  6.568331e-01   1.627763e-14   3.679931e-03   1.523365e-17   1141378
  6.695858e-01   1.499214e-14   3.681602e-03   1.378505e-17   1186552
  6.823378e-01   1.386686e-14   3.681238e-03   1.252295e-17   1231798
  6.950926e-01   1.276058e-14   3.683520e-03   1.132511e-17   1279234
  7.078494e-01   1.179037e-14   3.681308e-03   1.023613e-17   1325906
  7.206034e-01   1.089294e-14   3.681998e-03   9.292969e-18   1374352
  7.333523e-01   1.010027e-14   3.678754e-03   8.467572e-18   1421950
  7.460986e-01   9.347144e-15   3.681438e-03   7.699917e-18   1472962
  7.588478e-01   8.668802e-15   3.678790e-03   7.021370e-18   1522954
  7.715908e-01   8.041935e-15   3.677970e-03   6.406128e-18   1573804
  7.843534e-01   7.447305e-15   3.691683e-03   5.834459e-18   1632274
  7.971185e-01   6.911698e-15   3.678939e-03   5.338528e-18   1680226
  8.098559e-01   6.425549e-15   3.674931e-03   4.885659e-18   1732682
  8.226044e-01   5.972690e-15   3.684362e-03   4.466370e-18   1792204
  8.353683e-01   5.563767e-15   3.685360e-03   4.094769e-18   1848298
  8.481180e-01   5.184417e-15   3.676906e-03   3.767706e-18   1901050
  8.608642e-01   4.830429e-15   3.681435e-03   3.454006e-18   1961326
  8.736200e-01   4.516908e-15   3.682643e-03   3.181566e-18   2020312
  8.863805e-01   4.213109e-15   3.684838e-03   2.926071e-18   2080930
  8.991420e-01   3.934232e-15   3.683140e-03   2.688360e-18   2140390
  9.118910e-01   3.676231e-15   3.677128e-03   2.481801e-18   2198162
  9.246418e-01   3.440763e-15   3.683722e-03   2.290816e-18   2263864
  9.374012e-01   3.218484e-15   3.683606e-03   2.113324e-18   2326426
  9.501557e-01   3.022991e-15   3.680653e-03   1.957989e-18   2388550
  9.629062e-01   2.829957e-15   3.680356e-03   1.807330e-18   2453098
  9.756546e-01   2.655988e-15   3.679357e-03   1.674829e-18   2517592
  9.884059e-01   2.492837e-15   3.683066e-03   1.553145e-18   2586070
  1.001159e+00   2.338076e-15   3.680738e-03   1.436047e-18   2651842
  1.013911e+00   2.205030e-15   3.680987e-03   1.339530e-18   2720330
  1.026668e+00   2.072532e-15   3.684024e-03   1.241282e-18   2791156
  1.039424e+00   1.953225e-15   3.681208e-03   1.156250e-18   2858554
  1.052176e+00   1.841483e-15   3.681647e-03   1.075810e-18   2929594
  1.064923e+00   1.738641e-15   3.678395e-03   1.004282e-18   2998762
  1.077674e+00   1.638413e-15   3.682468e-03   9.343101e-19   3074188
  1.090422e+00   1.547565e-15   3.678360e-03   8.739016e-19   3143482
  1.103180e+00   1.459350e-15   3.687908e-03   8.137971e-19   3226186
  1.115936e+00   1.381933e-15   3.676634e-03   7.615414e-19   3291158
  1.128688e+00   1.306222e-15   3.685737e-03   7.115208e-19   3375112
  1.141448e+00   1.235457e-15   3.681431e-03   6.657137e-19   3447658
  1.154199e+00   1.172868e-15   3.680732e-03   6.252900e-19   3524626
  1.166950e+00   1.110706e-15   3.680340e-03   5.857711e-19   3602998
  1.179695e+00   1.053714e-15   3.677316e-03   5.498761e-19   3678592
  1.192442e+00   1.000543e-15   3.682841e-03   5.166635e-19   3764122
  1.205202e+00   9.497512e-16   3.684112e-03   4.850955e-19   3846598
  1.217954e+00   9.035675e-16   3.678173e-03   4.570156e-19   3922250
  1.230710e+00   8.583877e-16   3.685590e-03   4.291895e-19   4013032
  1.243470e+00   8.168290e-16   3.681062e-03   4.040862e-19   4091182
  1.256219e+00   7.774257e-16   3.679790e-03   3.808490e-19   4174282
  1.268971e+00   7.409646e-16   3.681900e-03   3.595708e-19   4261978
  1.281726e+00   7.052454e-16   3.682600e-03   3.390223e-19   4348624
  1.294477e+00   6.734712e-16   3.679148e-03   3.203885e-19   4431430
  1.307227e+00   6.413021e-16   3.682586e-03   3.024076e-19   4523290
  1.319983e+00   6.129075e-16   3.681902e-03   2.859847e-19   4611386
  1.332735e+00   5.859484e-16   3.680296e-03   2.704360e-19   4698814
  1.345489e+00   5.592808e-16   3.683391e-03   2.559578e-19   4792984
  1.358246e+00   5.354109e-16   3.682510e-03   2.425261e-19   4883194
  1.370998e+00   5.112543e-16   3.679847e-03   2.296175e-19   4971694
  1.383751e+00   4.899803e-16   3.683258e-03   2.181674e-19   5069434
  1.396503e+00   4.690561e-16   3.679348e-03   2.070319e-19   5157736
  1.409253e+00   4.490310e-16   3.682013e-03   1.961870e-19   5256202
  1.422008e+00   4.310532e-16   3.682033e-03   1.866540e-19   5351990
  1.434759e+00   4.125457e-16   3.679659e-03   1.771080e-19   5444914
  1.447515e+00   3.955239e-16   3.684860e-03   1.680088e-19   5550088
  1.460276e+00   3.800738e-16   3.682696e-03   1.602728e-19   5644774
  1.473027e+00   3.647259e-16   3.679557e-03   1.525549e-19   5739034
  1.485777e+00   3.505034e-16   3.680933e-03   1.451784e-19   5841154
  1.498530e+00   3.366918e-16   3.681993e-03   1.383212e-19   5943448
  1.511286e+00   3.237397e-16   3.682434e-03   1.319761e-19   6045670
  1.524036e+00   3.112517e-16   3.679211e-03   1.257343e-19   6142586
  1.536786e+00   2.996801e-16   3.681853e-03   1.201433e-19   6250738
  1.549543e+00   2.882762e-16   3.683337e-03   1.144999e-19   6357172
  1.562298e+00   2.774532e-16   3.681419e-03   1.092558e-19   6458506
  1.575052e+00   2.672051e-16   3.682170e-03   1.043435e-19   6566290
  1.587803e+00   2.574664e-16   3.679052e-03   9.986397e-20   6667414
  1.600551e+00   2.482561e-16   3.681081e-03   9.550403e-20   6778336
  1.613305e+00   2.392812e-16   3.683166e-03   9.137178e-20   6890218
  1.626056e+00   2.308130e-16   3.679040e-03   8.744360e-20   6992306
  1.638811e+00   2.225885e-16   3.684406e-03   8.364625e-20   7113454
  1.651568e+00   2.150449e-16   3.680582e-03   8.019028e-20   7216216
  1.664317e+00   2.075168e-16   3.680762e-03   7.688468e-20   7328218
  1.677070e+00   2.001850e-16   3.682190e-03   7.351761e-20   7444414
  1.689821e+00   1.933516e-16   3.679673e-03   7.047002e-20   7553290
  1.702576e+00   1.869254e-16   3.684026e-03   6.759614e-20   7676368
  1.715331e+00   1.807538e-16   3.680267e-03   6.493659e-20   7783150
  1.728082e+00   1.746211e-16   3.682357e-03   6.228366e-20   7904570
  1.740836e+00   1.690319e-16   3.680236e-03   5.983441e-20   8017570
  1.753592e+00   1.634101e-16   3.684218e-03   5.745405e-20   8143840
  1.766349e+00   1.582013e-16   3.680993e-03   5.517949e-20   8255134
  1.779097e+00   1.531153e-16   3.679373e-03   5.306251e-20   8371450
  1.791848e+00   1.482169e-16   3.682049e-03   5.098918e-20   8498578
  1.804607e+00   1.437391e-16   3.683747e-03   4.905576e-20   8623180
  1.817364e+00   1.391552e-16   3.682371e-03   4.718451e-20   8742034
  1.830116e+00   1.347105e-16   3.679631e-03   4.536988e-20   8859194
  1.842864e+00   1.306527e-16   3.680027e-03   4.372868e-20   8984386
  1.855615e+00   1.266622e-16   3.681221e-03   4.209929e-20   9111652
  1.868371e+00   1.227717e-16   3.683946e-03   4.048492e-20   9243322
  1.881126e+00   1.191523e-16   3.680271e-03   3.902071e-20   9361378
  1.893877e+00   1.156008e-16   3.681448e-03   3.763795e-20   9491998
  1.906629e+00   1.122064e-16   3.680822e-03   3.626250e-20   9618016
  1.919381e+00   1.089164e-16   3.682003e-03   3.495414e-20   9750178
  1.932133e+00   1.056765e-16   3.680253e-03   3.371797e-20   9875558
  1.944887e+00   1.026075e-16   3.683525e-03   3.252818e-20   10015834
  1.957639e+00   9.966782e-17   3.678626e-03   3.142287e-20   10133344
  1.970392e+00   9.684291e-17   3.684706e-03   3.029216e-20   10282522
  1.983150e+00   9.421994e-17   3.681133e-03   2.928394e-20   10406974
  1.995898e+00   9.160580e-17   3.678810e-03   2.831536e-20   10534378
  2.008651e+00   8.902595e-17   3.684003e-03   2.729890e-20   10684456
  2.021409e+00   8.653339e-17   3.681823e-03   2.640093e-20   10813894
  2.034159e+00   8.421383e-17   3.679680e-03   2.555028e-20   10944626
  2.046911e+00   8.188366e-17   3.682687e-03   2.467392e-20   11091802
  2.059666e+00   7.969416e-17   3.681058e-03   2.386448e-20   11224756
  2.072419e+00   7.755930e-17   3.682125e-03   2.307540e-20   11367730
  2.085174e+00   7.551925e-17   3.681936e-03   2.235905e-20   11507890
  2.097925e+00   7.348588e-17   3.679320e-03   2.160889e-20   11640658
  2.110678e+00   7.157758e-17   3.683383e-03   2.091993e-20   11795380
  2.123435e+00   6.972444e-17   3.682010e-03   2.027622e-20   11933434
  2.136188e+00   6.789430e-17   3.681227e-03   1.961822e-20   12074954
  2.148943e+00   6.616298e-17   3.682833e-03   1.899432e-20   12225142
  2.161693e+00   6.444736e-17   3.678591e-03   1.841959e-20   12356104
  2.174441e+00   6.285031e-17   3.681911e-03   1.783965e-20   12513442
  2.187198e+00   6.127362e-17   3.683046e-03   1.729272e-20   12664810
  2.199955e+00   5.969463e-17   3.682461e-03   1.674802e-20   12811246
  2.212709e+00   5.826211e-17   3.680738e-03   1.626005e-20   12953536
  2.225459e+00   5.679581e-17   3.681278e-03   1.576762e-20   13105042
  2.238213e+00   5.543451e-17   3.681995e-03   1.529321e-20   13258670
  2.250966e+00   5.411382e-17   3.681453e-03   1.484652e-20   13408738
  2.263720e+00   5.277832e-17   3.681812e-03   1.440178e-20   13562320
  2.276472e+00   5.154723e-17   3.680281e-03   1.399334e-20   13709062
  2.289223e+00   5.029360e-17   3.682002e-03   1.355988e-20   13870258
  2.301982e+00   4.914092e-17   3.683866e-03   1.319152e-20   14032714
  2.314735e+00   4.794647e-17   3.678901e-03   1.280240e-20   14169232
  2.327485e+00   4.684118e-17   3.682472e-03   1.243793e-20   14339422
  2.340238e+00   4.573788e-17   3.680575e-03   1.207247e-20   14489330
  2.352991e+00   4.470038e-17   3.682051e-03   1.174342e-20   14654458
  2.365744e+00   4.369349e-17   3.680808e-03   1.141767e-20   14808292
  2.378495e+00   4.270836e-17   3.681362e-03   1.110418e-20   14970130
  2.391248e+00   4.172721e-17   3.681409e-03   1.078414e-20   15131626
  2.403999e+00   4.079947e-17   3.680405e-03   1.049445e-20   15289198
  2.416755e+00   3.990040e-17   3.683835e-03   1.019681e-20   15466552
  2.429511e+00   3.898597e-17   3.680792e-03   9.922555e-21   15616714
  2.442261e+00   3.813328e-17   3.680631e-03   9.652411e-21   15780506
  2.455014e+00   3.732071e-17   3.682312e-03   9.403327e-21   15953542
  2.467771e+00   3.649884e-17   3.682809e-03   9.145401e-21   16121296
  2.480521e+00   3.570938e-17   3.678892e-03   8.908812e-21   16270762
  2.493272e+00   3.495117e-17   3.683074e-03   8.673705e-21   16457182
  2.506029e+00   3.420216e-17   3.682337e-03   8.449364e-21   16623562
  2.518783e+00   3.346576e-17   3.680725e-03   8.213926e-21   16785784
  2.531534e+00   3.275998e-17   3.681653e-03   8.010454e-21   16959370
  2.544288e+00   3.208272e-17   3.682022e-03   7.804312e-21   17132774
  2.557041e+00   3.140339e-17   3.680981e-03   7.603700e-21   17300602
  2.569795e+00   3.076225e-17   3.682396e-03   7.412965e-21   17480656
  2.582549e+00   3.012619e-17   3.681028e-03   7.225117e-21   17647558
  2.595301e+00   2.949482e-17   3.681358e-03   7.036387e-21   17823778
  2.608054e+00   2.890943e-17   3.681613e-03   6.862710e-21   18001594
  2.620806e+00   2.831147e-17   3.680526e-03   6.694877e-21   18172300
  2.633559e+00   2.773207e-17   3.682066e-03   6.523075e-21   18356770
  2.646316e+00   2.716151e-17   3.683321e-03   6.360216e-21   18541082
  2.659073e+00   2.662696e-17   3.681934e-03   6.201427e-21   18713914
  2.671823e+00   2.612070e-17   3.679083e-03   6.061565e-21   18879742
  2.684574e+00   2.560685e-17   3.682617e-03   5.913759e-21   19077592
  2.697329e+00   2.509797e-17   3.681921e-03   5.768319e-21   19255474
  2.710083e+00   2.459766e-17   3.681561e-03   5.625861e-21   19436278
  2.722832e+00   2.411159e-17   3.678954e-03   5.496502e-21   19605994
  2.735585e+00   2.366256e-17   3.684099e-03   5.362038e-21   19817344
  2.748342e+00   2.320488e-17   3.681109e-03   5.239783e-21   19985702
  2.761094e+00   2.276674e-17   3.681644e-03   5.114437e-21   20175730
  2.773845e+00   2.232877e-17   3.679912e-03   4.994392e-21   20352682
  2.786598e+00   2.191312e-17   3.683498e-03   4.877621e-21   20559616
  2.799356e+00   2.149675e-17   3.682280e-03   4.765150e-21   20741518
  2.812105e+00   2.111067e-17   3.678894e-03   4.661395e-21   20912026
  2.824855e+00   2.071615e-17   3.682015e-03   4.551888e-21   21121018
  2.837610e+00   2.033125e-17   3.681802e-03   4.448773e-21   21310012
  2.850362e+00   1.995303e-17   3.680813e-03   4.349022e-21   21496154
  2.863118e+00   1.958720e-17   3.683473e-03   4.247483e-21   21705946
  2.875873e+00   1.922916e-17   3.680669e-03   4.153753e-21   21882562
  2.888626e+00   1.888584e-17   3.682162e-03   4.060145e-21   22085428
  2.901384e+00   1.854180e-17   3.683214e-03   3.969170e-21   22287106
  2.914134e+00   1.820101e-17   3.678437e-03   3.882044e-21   22455010
  2.926883e+00   1.788647e-17   3.681607e-03   3.798394e-21   22671694
  2.939638e+00   1.755887e-17   3.682507e-03   3.713071e-21   22874368
  2.952394e+00   1.725911e-17   3.682002e-03   3.635371e-21   23070146
  2.965147e+00   1.694024e-17   3.681033e-03   3.553600e-21   23264038
  2.977898e+00   1.665622e-17   3.680981e-03   3.479158e-21   23464210
  2.990653e+00   1.637994e-17   3.683188e-03   3.406206e-21   23679208
  3.003408e+00   1.608965e-17   3.681184e-03   3.333284e-21   23868658
  3.016160e+00   1.580723e-17   3.680900e-03   3.260554e-21   24070582
  3.028912e+00   1.553757e-17   3.681593e-03   3.191050e-21   24278842
  3.041665e+00   1.527062e-17   3.681417e-03   3.125965e-21   24482272
  3.054418e+00   1.501162e-17   3.681719e-03   3.059410e-21   24689510
  3.067171e+00   1.476082e-17   3.681372e-03   2.996787e-21   24894634
  3.079925e+00   1.451758e-17   3.682228e-03   2.933363e-21   25108474
  3.092680e+00   1.427529e-17   3.681825e-03   2.875108e-21   25313116
  3.105433e+00   1.402506e-17   3.680868e-03   2.813942e-21   25515970
  3.118184e+00   1.380120e-17   3.681155e-03   2.757534e-21   25727962
  3.130938e+00   1.356697e-17   3.682510e-03   2.701065e-21   25948954
  3.143694e+00   1.334515e-17   3.682026e-03   2.645421e-21   26157220
  3.156445e+00   1.312723e-17   3.679581e-03   2.593864e-21   26351546
  3.169196e+00   1.292054e-17   3.682249e-03   2.542628e-21   26585314
  3.181952e+00   1.270416e-17   3.682365e-03   2.489686e-21   26800630
  3.194706e+00   1.250180e-17   3.680714e-03   2.441862e-21   27003376
  3.207455e+00   1.229921e-17   3.679962e-03   2.393247e-21   27213202
  3.220208e+00   1.210107e-17   3.683357e-03   2.344720e-21   27455194
  3.232966e+00   1.190723e-17   3.682253e-03   2.297464e-21   27666070
  3.245719e+00   1.172339e-17   3.680401e-03   2.255087e-21   27870280
  3.258468e+00   1.153976e-17   3.680260e-03   2.212330e-21   28088090
  3.271220e+00   1.135393e-17   3.682540e-03   2.167285e-21   28326262
  3.283977e+00   1.117597e-17   3.682410e-03   2.126397e-21   28546906
  3.296732e+00   1.100396e-17   3.681571e-03   2.085322e-21   28762552
  3.309484e+00   1.083472e-17   3.681027e-03   2.045658e-21   28979734
  3.322237e+00   1.066586e-17   3.681948e-03   2.007474e-21   29211106
  3.334990e+00   1.050162e-17   3.681286e-03   1.968564e-21   29431738
  3.347741e+00   1.034235e-17   3.680281e-03   1.932057e-21   29648776
  3.360493e+00   1.018206e-17   3.682059e-03   1.895005e-21   29888654
  3.373249e+00   1.002761e-17   3.682995e-03   1.860025e-21   30123490
  3.386003e+00   9.878279e-18   3.680742e-03   1.826416e-21   30334570
  3.398755e+00   9.723645e-18   3.681166e-03   1.792258e-21   30566524
  3.411507e+00   9.585204e-18   3.681508e-03   1.760221e-21   30798370
  3.424265e+00   9.444716e-18   3.684101e-03   1.726898e-21   31052026
  3.437018e+00   9.296979e-18   3.679094e-03   1.694290e-21   31241782
  3.449769e+00   9.161249e-18   3.682408e-03   1.663362e-21   31502128
  3.462523e+00   9.024535e-18   3.680952e-03   1.633319e-21   31721474
  3.475274e+00   8.893962e-18   3.681379e-03   1.603470e-21   31960210
  3.488028e+00   8.763671e-18   3.681819e-03   1.575048e-21   32200582
  3.500782e+00   8.634353e-18   3.681186e-03   1.547146e-21   32429512
  3.513537e+00   8.507158e-18   3.683389e-03   1.518263e-21   32685226
  3.526292e+00   8.389409e-18   3.680900e-03   1.493186e-21   32900830
  3.539043e+00   8.268998e-18   3.680394e-03   1.466151e-21   33135682
  3.551794e+00   8.145796e-18   3.681624e-03   1.440005e-21   33385288
  3.564548e+00   8.029794e-18   3.681804e-03   1.413979e-21   33625706
  3.577303e+00   7.919723e-18   3.682363e-03   1.390325e-21   33873550
  3.590054e+00   7.803325e-18   3.679768e-03   1.365616e-21   34091770
