# power spectrum of phi
# redshift z=29.767710
# k              Pk             sigma(k)       sigma(Pk)      count
  9.713012e-03   4.526077e-10   2.406229e-03   4.329332e-11   146
  2.072432e-02   2.833319e-10   3.528511e-03   8.915637e-12   1042
  3.284725e-02   1.378039e-10   3.519819e-03   2.961600e-12   2698
  4.516399e-02   7.256568e-11   3.571852e-03   1.028809e-12   5206
  5.773095e-02   4.628409e-11   3.674394e-03   5.192629e-13   8752
  7.053126e-02   3.267412e-11   3.718866e-03   2.892614e-13   13258
  8.325183e-02   2.251867e-11   3.633038e-03   1.714838e-13   18070
  9.586244e-02   1.512724e-11   3.646001e-03   9.852756e-14   24050
  1.086731e-01   1.088263e-11   3.743375e-03   6.119072e-14   31720
  1.214673e-01   8.716108e-12   3.655693e-03   4.433507e-14   38722
  1.341503e-01   6.971080e-12   3.664149e-03   3.245791e-14   47398
  1.468737e-01   5.396709e-12   3.676840e-03   2.268696e-14   56986
  1.596345e-01   4.145108e-12   3.691904e-03   1.612851e-14   67552
  1.723758e-01   3.392798e-12   3.670421e-03   1.214733e-14   78310
  1.850973e-01   2.858281e-12   3.676755e-03   9.577472e-15   90514
  1.978078e-01   2.462640e-12   3.661019e-03   7.777936e-15   102938
  2.105352e-01   2.011777e-12   3.688328e-03   5.890701e-15   117412
  2.233038e-01   1.682081e-12   3.687633e-03   4.640867e-15   132106
  2.360543e-01   1.428879e-12   3.674616e-03   3.735480e-15   147154
  2.487863e-01   1.246137e-12   3.675727e-03   3.088278e-15   163522
  2.615607e-01   1.096782e-12   3.698362e-03   2.577735e-15   181804
  2.742948e-01   9.475272e-13   3.657995e-03   2.147854e-15   197722
  2.870326e-01   8.168819e-13   3.695982e-03   1.748107e-15   218866
  2.998036e-01   7.233732e-13   3.677083e-03   1.485884e-15   237542
  3.125403e-01   6.419017e-13   3.676719e-03   1.265415e-15   258136
  3.252883e-01   5.745930e-13   3.682574e-03   1.089282e-15   280066
  3.380302e-01   5.089654e-13   3.674707e-03   9.299509e-16   301774
  3.507809e-01   4.528657e-13   3.685866e-03   7.930054e-16   326050
  3.635453e-01   4.069242e-13   3.682723e-03   6.907181e-16   349792
  3.763059e-01   3.679339e-13   3.686387e-03   6.032013e-16   375154
  3.890549e-01   3.331734e-13   3.673994e-03   5.301375e-16   399742
  4.017814e-01   3.034704e-13   3.673301e-03   4.658222e-16   426266
  4.145262e-01   2.739639e-13   3.683104e-03   4.070920e-16   454960
  4.272780e-01   2.495681e-13   3.679614e-03   3.598213e-16   482734
  4.400302e-01   2.285128e-13   3.684412e-03   3.196669e-16   512746
  4.527916e-01   2.097315e-13   3.682552e-03   2.848234e-16   542746
  4.655520e-01   1.912642e-13   3.684426e-03   2.527765e-16   573952
  4.783045e-01   1.757047e-13   3.678870e-03   2.273514e-16   604918
  4.910489e-01   1.624508e-13   3.679488e-03   2.039122e-16   637666
  5.038054e-01   1.494720e-13   3.685840e-03   1.820899e-16   672482
  5.165640e-01   1.388973e-13   3.679909e-03   1.654371e-16   705748
  5.293052e-01   1.283828e-13   3.678052e-03   1.488734e-16   740482
  5.420630e-01   1.189107e-13   3.688653e-03   1.345643e-16   779026
  5.548129e-01   1.102381e-13   3.672495e-03   1.223034e-16   812614
  5.675646e-01   1.027312e-13   3.688923e-03   1.112915e-16   854200
  5.803275e-01   9.582780e-14   3.679836e-03   1.016516e-16   890746
  5.930743e-01   8.950955e-14   3.680017e-03   9.269849e-17   930394
  6.058234e-01   8.376044e-14   3.680076e-03   8.517257e-17   970982
  6.185756e-01   7.835019e-14   3.681715e-03   7.789216e-17   1012600
  6.313355e-01   7.340520e-14   3.685773e-03   7.159205e-17   1055890
  6.440885e-01   6.887389e-14   3.677546e-03   6.605724e-17   1096630
  6.568331e-01   6.454281e-14   3.679931e-03   6.047349e-17   1141378
  6.695858e-01   6.067078e-14   3.681602e-03   5.578274e-17   1186552
  6.823378e-01   5.716146e-14   3.681238e-03   5.159587e-17   1231798
  6.950926e-01   5.376541e-14   3.683520e-03   4.768753e-17   1279234
  7.078494e-01   5.077873e-14   3.681308e-03   4.419675e-17   1325906
  7.206034e-01   4.795575e-14   3.681998e-03   4.098188e-17   1374352
  7.333523e-01   4.523964e-14   3.678754e-03   3.800414e-17   1421950
  7.460986e-01   4.293126e-14   3.681438e-03   3.543303e-17   1472962
  7.588478e-01   4.055322e-14   3.678790e-03   3.290103e-17   1522954
  7.715908e-01   3.837160e-14   3.677970e-03   3.061283e-17   1573804
  7.843534e-01   3.641453e-14   3.691683e-03   2.851229e-17   1632274
  7.971185e-01   3.453888e-14   3.678939e-03   2.665977e-17   1680226
  8.098559e-01   3.276704e-14   3.674931e-03   2.496867e-17   1732682
  8.226044e-01   3.113030e-14   3.684362e-03   2.325533e-17   1792204
  8.353683e-01   2.964851e-14   3.685360e-03   2.180434e-17   1848298
  8.481180e-01   2.820098e-14   3.676906e-03   2.050063e-17   1901050
  8.608642e-01   2.683353e-14   3.681435e-03   1.916563e-17   1961326
  8.736200e-01   2.554124e-14   3.682643e-03   1.802192e-17   2020312
  8.863805e-01   2.439510e-14   3.684838e-03   1.693181e-17   2080930
  8.991420e-01   2.325127e-14   3.683140e-03   1.589250e-17   2140390
  9.118910e-01   2.221561e-14   3.677128e-03   1.502633e-17   2198162
  9.246418e-01   2.120674e-14   3.683722e-03   1.410371e-17   2263864
  9.374012e-01   2.028725e-14   3.683606e-03   1.331116e-17   2326426
  9.501557e-01   1.939238e-14   3.680653e-03   1.255163e-17   2388550
  9.629062e-01   1.852343e-14   3.680356e-03   1.181657e-17   2453098
  9.756546e-01   1.773909e-14   3.679357e-03   1.119119e-17   2517592
  9.884059e-01   1.702142e-14   3.683066e-03   1.061214e-17   2586070
  1.001159e+00   1.629766e-14   3.680738e-03   1.001158e-17   2651842
  1.013911e+00   1.562057e-14   3.680987e-03   9.455168e-18   2720330
  1.026668e+00   1.498723e-14   3.684024e-03   8.988922e-18   2791156
  1.039424e+00   1.438741e-14   3.681208e-03   8.522293e-18   2858554
  1.052176e+00   1.381005e-14   3.681647e-03   8.068489e-18   2929594
  1.064923e+00   1.326634e-14   3.678395e-03   7.658714e-18   2998762
  1.077674e+00   1.274121e-14   3.682468e-03   7.276215e-18   3074188
  1.090422e+00   1.226826e-14   3.678360e-03   6.918901e-18   3143482
  1.103180e+00   1.178909e-14   3.687908e-03   6.563784e-18   3226186
  1.115936e+00   1.134617e-14   3.676634e-03   6.269492e-18   3291158
  1.128688e+00   1.092282e-14   3.685737e-03   5.946595e-18   3375112
  1.141448e+00   1.052282e-14   3.681431e-03   5.670202e-18   3447658
  1.154199e+00   1.013510e-14   3.680732e-03   5.404088e-18   3524626
  1.166950e+00   9.763283e-15   3.680340e-03   5.151349e-18   3602998
  1.179695e+00   9.415577e-15   3.677316e-03   4.912653e-18   3678592
  1.192442e+00   9.077722e-15   3.682841e-03   4.677656e-18   3764122
  1.205202e+00   8.752905e-15   3.684112e-03   4.466798e-18   3846598
  1.217954e+00   8.458487e-15   3.678173e-03   4.270120e-18   3922250
  1.230710e+00   8.154694e-15   3.685590e-03   4.076326e-18   4013032
  1.243470e+00   7.878636e-15   3.681062e-03   3.893744e-18   4091182
  1.256219e+00   7.609402e-15   3.679790e-03   3.731034e-18   4174282
  1.268971e+00   7.354257e-15   3.681900e-03   3.565738e-18   4261978
  1.281726e+00   7.104137e-15   3.682600e-03   3.407937e-18   4348624
  1.294477e+00   6.875069e-15   3.679148e-03   3.267868e-18   4431430
  1.307227e+00   6.643455e-15   3.682586e-03   3.127755e-18   4523290
  1.319983e+00   6.433490e-15   3.681902e-03   2.999653e-18   4611386
  1.332735e+00   6.231169e-15   3.680296e-03   2.878556e-18   4698814
  1.345489e+00   6.029982e-15   3.683391e-03   2.755856e-18   4792984
  1.358246e+00   5.841479e-15   3.682510e-03   2.644222e-18   4883194
  1.370998e+00   5.648294e-15   3.679847e-03   2.536434e-18   4971694
  1.383751e+00   5.472347e-15   3.683258e-03   2.435672e-18   5069434
  1.396503e+00   5.310932e-15   3.679348e-03   2.340690e-18   5157736
  1.409253e+00   5.146590e-15   3.682013e-03   2.250815e-18   5256202
  1.422008e+00   4.989216e-15   3.682033e-03   2.160773e-18   5351990
  1.434759e+00   4.837908e-15   3.679659e-03   2.075093e-18   5444914
  1.447515e+00   4.695384e-15   3.684860e-03   1.993981e-18   5550088
  1.460276e+00   4.558051e-15   3.682696e-03   1.919154e-18   5644774
  1.473027e+00   4.423532e-15   3.679557e-03   1.848207e-18   5739034
  1.485777e+00   4.295608e-15   3.680933e-03   1.779397e-18   5841154
  1.498530e+00   4.169134e-15   3.681993e-03   1.710744e-18   5943448
  1.511286e+00   4.051285e-15   3.682434e-03   1.650259e-18   6045670
  1.524036e+00   3.939363e-15   3.679211e-03   1.590894e-18   6142586
  1.536786e+00   3.824529e-15   3.681853e-03   1.531157e-18   6250738
  1.549543e+00   3.718749e-15   3.683337e-03   1.477434e-18   6357172
  1.562298e+00   3.614098e-15   3.681419e-03   1.423128e-18   6458506
  1.575052e+00   3.515535e-15   3.682170e-03   1.373758e-18   6566290
  1.587803e+00   3.414083e-15   3.679052e-03   1.324235e-18   6667414
  1.600551e+00   3.321494e-15   3.681081e-03   1.277246e-18   6778336
  1.613305e+00   3.235419e-15   3.683166e-03   1.234054e-18   6890218
  1.626056e+00   3.149284e-15   3.679040e-03   1.193405e-18   6992306
  1.638811e+00   3.063916e-15   3.684406e-03   1.151719e-18   7113454
  1.651568e+00   2.983808e-15   3.680582e-03   1.113226e-18   7216216
  1.664317e+00   2.904365e-15   3.680762e-03   1.073833e-18   7328218
  1.677070e+00   2.828085e-15   3.682190e-03   1.039139e-18   7444414
  1.689821e+00   2.754938e-15   3.679673e-03   1.003838e-18   7553290
  1.702576e+00   2.681934e-15   3.684026e-03   9.687801e-19   7676368
  1.715331e+00   2.616627e-15   3.680267e-03   9.406186e-19   7783150
  1.728082e+00   2.548440e-15   3.682357e-03   9.083123e-19   7904570
  1.740836e+00   2.481784e-15   3.680236e-03   8.788437e-19   8017570
  1.753592e+00   2.420994e-15   3.684218e-03   8.504824e-19   8143840
  1.766349e+00   2.361369e-15   3.680993e-03   8.235620e-19   8255134
  1.779097e+00   2.301731e-15   3.679373e-03   7.974485e-19   8371450
  1.791848e+00   2.245561e-15   3.682049e-03   7.725160e-19   8498578
  1.804607e+00   2.191341e-15   3.683747e-03   7.481319e-19   8623180
  1.817364e+00   2.137680e-15   3.682371e-03   7.250291e-19   8742034
  1.830116e+00   2.085797e-15   3.679631e-03   7.029023e-19   8859194
  1.842864e+00   2.035659e-15   3.680027e-03   6.812775e-19   8984386
  1.855615e+00   1.987447e-15   3.681221e-03   6.602309e-19   9111652
  1.868371e+00   1.940033e-15   3.683946e-03   6.397838e-19   9243322
  1.881126e+00   1.894294e-15   3.680271e-03   6.210181e-19   9361378
  1.893877e+00   1.850055e-15   3.681448e-03   6.026277e-19   9491998
  1.906629e+00   1.807232e-15   3.680822e-03   5.845350e-19   9618016
  1.919381e+00   1.765272e-15   3.682003e-03   5.672081e-19   9750178
  1.932133e+00   1.723446e-15   3.680253e-03   5.500195e-19   9875558
  1.944887e+00   1.686568e-15   3.683525e-03   5.347890e-19   10015834
  1.957639e+00   1.645478e-15   3.678626e-03   5.186330e-19   10133344
  1.970392e+00   1.609531e-15   3.684706e-03   5.037439e-19   10282522
  1.983150e+00   1.573429e-15   3.681133e-03   4.897250e-19   10406974
  1.995898e+00   1.536893e-15   3.678810e-03   4.751308e-19   10534378
  2.008651e+00   1.503805e-15   3.684003e-03   4.616192e-19   10684456
  2.021409e+00   1.471989e-15   3.681823e-03   4.491234e-19   10813894
  2.034159e+00   1.438262e-15   3.679680e-03   4.364565e-19   10944626
  2.046911e+00   1.406675e-15   3.682687e-03   4.243039e-19   11091802
  2.059666e+00   1.376622e-15   3.681058e-03   4.129001e-19   11224756
  2.072419e+00   1.345909e-15   3.682125e-03   4.006663e-19   11367730
  2.085174e+00   1.317533e-15   3.681936e-03   3.899469e-19   11507890
  2.097925e+00   1.289583e-15   3.679320e-03   3.795703e-19   11640658
  2.110678e+00   1.262080e-15   3.683383e-03   3.693235e-19   11795380
  2.123435e+00   1.234978e-15   3.682010e-03   3.590871e-19   11933434
  2.136188e+00   1.209069e-15   3.681227e-03   3.495728e-19   12074954
  2.148943e+00   1.184351e-15   3.682833e-03   3.401880e-19   12225142
  2.161693e+00   1.159467e-15   3.678591e-03   3.315554e-19   12356104
  2.174441e+00   1.135228e-15   3.681911e-03   3.225086e-19   12513442
  2.187198e+00   1.112275e-15   3.683046e-03   3.142190e-19   12664810
  2.199955e+00   1.089418e-15   3.682461e-03   3.060047e-19   12811246
  2.212709e+00   1.066659e-15   3.680738e-03   2.978038e-19   12953536
  2.225459e+00   1.045707e-15   3.681278e-03   2.905902e-19   13105042
  2.238213e+00   1.023971e-15   3.681995e-03   2.828167e-19   13258670
  2.250966e+00   1.003699e-15   3.681453e-03   2.756991e-19   13408738
  2.263720e+00   9.840741e-16   3.681812e-03   2.689936e-19   13562320
  2.276472e+00   9.642456e-16   3.680281e-03   2.621254e-19   13709062
  2.289223e+00   9.451505e-16   3.682002e-03   2.554378e-19   13870258
  2.301982e+00   9.265801e-16   3.683866e-03   2.489376e-19   14032714
  2.314735e+00   9.084318e-16   3.678901e-03   2.430139e-19   14169232
  2.327485e+00   8.906526e-16   3.682472e-03   2.367315e-19   14339422
  2.340238e+00   8.738409e-16   3.680575e-03   2.311868e-19   14489330
  2.352991e+00   8.563151e-16   3.682051e-03   2.252164e-19   14654458
  2.365744e+00   8.399790e-16   3.680808e-03   2.199271e-19   14808292
  2.378495e+00   8.242361e-16   3.681362e-03   2.146096e-19   14970130
  2.391248e+00   8.088205e-16   3.681409e-03   2.096206e-19   15131626
  2.403999e+00   7.927795e-16   3.680405e-03   2.042600e-19   15289198
  2.416755e+00   7.787128e-16   3.683835e-03   1.994876e-19   15466552
  2.429511e+00   7.638488e-16   3.680792e-03   1.948299e-19   15616714
  2.442261e+00   7.496403e-16   3.680631e-03   1.903270e-19   15780506
  2.455014e+00   7.356696e-16   3.682312e-03   1.857679e-19   15953542
  2.467771e+00   7.223653e-16   3.682809e-03   1.814649e-19   16121296
  2.480521e+00   7.087490e-16   3.678892e-03   1.773409e-19   16270762
  2.493272e+00   6.953911e-16   3.683074e-03   1.728509e-19   16457182
  2.506029e+00   6.832414e-16   3.682337e-03   1.690151e-19   16623562
  2.518783e+00   6.702802e-16   3.680725e-03   1.651047e-19   16785784
  2.531534e+00   6.585233e-16   3.681653e-03   1.612990e-19   16959370
  2.544288e+00   6.468453e-16   3.682022e-03   1.578352e-19   17132774
  2.557041e+00   6.349322e-16   3.680981e-03   1.541064e-19   17300602
  2.569795e+00   6.231628e-16   3.682396e-03   1.505313e-19   17480656
  2.582549e+00   6.122964e-16   3.681028e-03   1.472043e-19   17647558
  2.595301e+00   6.014135e-16   3.681358e-03   1.438719e-19   17823778
  2.608054e+00   5.914057e-16   3.681613e-03   1.408421e-19   18001594
  2.620806e+00   5.809089e-16   3.680526e-03   1.377401e-19   18172300
  2.633559e+00   5.706412e-16   3.682066e-03   1.347917e-19   18356770
  2.646316e+00   5.605679e-16   3.683321e-03   1.317323e-19   18541082
  2.659073e+00   5.507785e-16   3.681934e-03   1.287271e-19   18713914
  2.671823e+00   5.415002e-16   3.679083e-03   1.261120e-19   18879742
  2.684574e+00   5.321129e-16   3.682617e-03   1.232247e-19   19077592
  2.697329e+00   5.228789e-16   3.681921e-03   1.205480e-19   19255474
  2.710083e+00   5.142509e-16   3.681561e-03   1.179556e-19   19436278
  2.722832e+00   5.053323e-16   3.678954e-03   1.155706e-19   19605994
  2.735585e+00   4.971550e-16   3.684099e-03   1.131076e-19   19817344
  2.748342e+00   4.890722e-16   3.681109e-03   1.107733e-19   19985702
  2.761094e+00   4.802366e-16   3.681644e-03   1.084037e-19   20175730
  2.773845e+00   4.723226e-16   3.679912e-03   1.061179e-19   20352682
  2.786598e+00   4.646076e-16   3.683498e-03   1.038913e-19   20559616
  2.799356e+00   4.568366e-16   3.682280e-03   1.017231e-19   20741518
  2.812105e+00   4.494059e-16   3.678894e-03   9.967120e-20   20912026
  2.824855e+00   4.419964e-16   3.682015e-03   9.754984e-20   21121018
  2.837610e+00   4.347765e-16   3.681802e-03   9.560267e-20   21310012
  2.850362e+00   4.276182e-16   3.680813e-03   9.367232e-20   21496154
  2.863118e+00   4.208675e-16   3.683473e-03   9.174337e-20   21705946
  2.875873e+00   4.140562e-16   3.680669e-03   8.987733e-20   21882562
  2.888626e+00   4.073087e-16   3.682162e-03   8.803118e-20   22085428
  2.901384e+00   4.008558e-16   3.683214e-03   8.629338e-20   22287106
  2.914134e+00   3.943555e-16   3.678437e-03   8.454778e-20   22455010
  2.926883e+00   3.882789e-16   3.681607e-03   8.296666e-20   22671694
  2.939638e+00   3.818241e-16   3.682507e-03   8.117591e-20   22874368
  2.952394e+00   3.760389e-16   3.682002e-03   7.971339e-20   23070146
  2.965147e+00   3.700061e-16   3.681033e-03   7.809409e-20   23264038
  2.977898e+00   3.641382e-16   3.680981e-03   7.653508e-20   23464210
  2.990653e+00   3.586143e-16   3.683188e-03   7.503458e-20   23679208
  3.003408e+00   3.530967e-16   3.681184e-03   7.366257e-20   23868658
  3.016160e+00   3.473314e-16   3.680900e-03   7.213328e-20   24070582
  3.028912e+00   3.421142e-16   3.681593e-03   7.076490e-20   24278842
  3.041665e+00   3.368338e-16   3.681417e-03   6.943962e-20   24482272
  3.054418e+00   3.316472e-16   3.681719e-03   6.807921e-20   24689510
  3.067171e+00   3.266934e-16   3.681372e-03   6.683274e-20   24894634
  3.079925e+00   3.217072e-16   3.682228e-03   6.553681e-20   25108474
  3.092680e+00   3.167180e-16   3.681825e-03   6.427178e-20   25313116
  3.105433e+00   3.120405e-16   3.680868e-03   6.311328e-20   25515970
  3.118184e+00   3.074222e-16   3.681155e-03   6.195098e-20   25727962
  3.130938e+00   3.026855e-16   3.682510e-03   6.073916e-20   25948954
  3.143694e+00   2.981419e-16   3.682026e-03   5.963377e-20   26157220
  3.156445e+00   2.937658e-16   3.679581e-03   5.851518e-20   26351546
  3.169196e+00   2.894649e-16   3.682249e-03   5.748766e-20   26585314
  3.181952e+00   2.851967e-16   3.682365e-03   5.639303e-20   26800630
  3.194706e+00   2.808001e-16   3.680714e-03   5.532319e-20   27003376
  3.207455e+00   2.767927e-16   3.679962e-03   5.438767e-20   27213202
  3.220208e+00   2.726279e-16   3.683357e-03   5.333288e-20   27455194
  3.232966e+00   2.686859e-16   3.682253e-03   5.238970e-20   27666070
  3.245719e+00   2.650198e-16   3.680401e-03   5.151762e-20   27870280
  3.258468e+00   2.610351e-16   3.680260e-03   5.055557e-20   28088090
  3.271220e+00   2.573537e-16   3.682540e-03   4.965661e-20   28326262
  3.283977e+00   2.536270e-16   3.682410e-03   4.875311e-20   28546906
  3.296732e+00   2.498671e-16   3.681571e-03   4.788362e-20   28762552
  3.309484e+00   2.463524e-16   3.681027e-03   4.705148e-20   28979734
  3.322237e+00   2.428461e-16   3.681948e-03   4.619221e-20   29211106
  3.334990e+00   2.394258e-16   3.681286e-03   4.542745e-20   29431738
  3.347741e+00   2.361812e-16   3.680281e-03   4.464276e-20   29648776
  3.360493e+00   2.328213e-16   3.682059e-03   4.386262e-20   29888654
  3.373249e+00   2.294006e-16   3.682995e-03   4.308284e-20   30123490
  3.386003e+00   2.262708e-16   3.680742e-03   4.233267e-20   30334570
  3.398755e+00   2.231799e-16   3.681166e-03   4.162731e-20   30566524
  3.411507e+00   2.200923e-16   3.681508e-03   4.092317e-20   30798370
  3.424265e+00   2.170218e-16   3.684101e-03   4.020212e-20   31052026
  3.437018e+00   2.140869e-16   3.679094e-03   3.957487e-20   31241782
  3.449769e+00   2.110528e-16   3.682408e-03   3.882104e-20   31502128
  3.462523e+00   2.081824e-16   3.680952e-03   3.820280e-20   31721474
  3.475274e+00   2.052610e-16   3.681379e-03   3.753361e-20   31960210
  3.488028e+00   2.024706e-16   3.681819e-03   3.692289e-20   32200582
  3.500782e+00   1.997563e-16   3.681186e-03   3.632840e-20   32429512
  3.513537e+00   1.970582e-16   3.683389e-03   3.569118e-20   32685226
  3.526292e+00   1.944532e-16   3.680900e-03   3.514107e-20   32900830
  3.539043e+00   1.917983e-16   3.680394e-03   3.455701e-20   33135682
  3.551794e+00   1.892239e-16   3.681624e-03   3.396393e-20   33385288
  3.564548e+00   1.866828e-16   3.681804e-03   3.341281e-20   33625706
  3.577303e+00   1.842240e-16   3.682363e-03   3.285824e-20   33873550
  3.590054e+00   1.817592e-16   3.679768e-03   3.234251e-20   34091770
  3.602807e+00   1.793705e-16   3.682821e-03   3.181251e-20   34362160
