# power spectrum of zeta (dimensionless)
# redshift z=4.989304
# k              Pk             sigma(k)       sigma(Pk)      count
  9.713012e-03   3.875964e-18   2.406229e-03   4.616575e-19   146
  2.072432e-02   3.907249e-17   3.528511e-03   1.384806e-18   1042
  3.284725e-02   1.128432e-16   3.519819e-03   2.279504e-18   2698
  4.516399e-02   2.176648e-16   3.571852e-03   3.092318e-18   5206
  5.773095e-02   3.729124e-16   3.674394e-03   4.205056e-18   8752
  7.053126e-02   5.814551e-16   3.718866e-03   5.121344e-18   13258
  8.325183e-02   7.776412e-16   3.633038e-03   5.841549e-18   18070
  9.586244e-02   9.177470e-16   3.646001e-03   5.928743e-18   24050
  1.086731e-01   1.093320e-15   3.743375e-03   6.160524e-18   31720
  1.214673e-01   1.363729e-15   3.655693e-03   6.910512e-18   38722
  1.341503e-01   1.617286e-15   3.664149e-03   7.498661e-18   47398
  1.468737e-01   1.790818e-15   3.676840e-03   7.481250e-18   56986
  1.596345e-01   1.918522e-15   3.691904e-03   7.435064e-18   67552
  1.723758e-01   2.129880e-15   3.670421e-03   7.618392e-18   78310
  1.850973e-01   2.377108e-15   3.676755e-03   7.959528e-18   90514
  1.978078e-01   2.656090e-15   3.661019e-03   8.362734e-18   102938
  2.105352e-01   2.772487e-15   3.688328e-03   8.103468e-18   117412
  2.233038e-01   2.922055e-15   3.687633e-03   8.032830e-18   132106
  2.360543e-01   3.087257e-15   3.674616e-03   8.050656e-18   147154
  2.487863e-01   3.305360e-15   3.675727e-03   8.185359e-18   163522
  2.615607e-01   3.535835e-15   3.698362e-03   8.309687e-18   181804
  2.742948e-01   3.671009e-15   3.657995e-03   8.314688e-18   197722
  2.870326e-01   3.774431e-15   3.695982e-03   8.071605e-18   218866
  2.998036e-01   3.953449e-15   3.677083e-03   8.114060e-18   237542
  3.125403e-01   4.115058e-15   3.676719e-03   8.110377e-18   258136
  3.252883e-01   4.291051e-15   3.682574e-03   8.126324e-18   280066
  3.380302e-01   4.399913e-15   3.674707e-03   8.032393e-18   301774
  3.507809e-01   4.509032e-15   3.685866e-03   7.885185e-18   326050
  3.635453e-01   4.644387e-15   3.682723e-03   7.879031e-18   349792
  3.763059e-01   4.779346e-15   3.686387e-03   7.825356e-18   375154
  3.890549e-01   4.906391e-15   3.673994e-03   7.799851e-18   399742
  4.017814e-01   5.038053e-15   3.673301e-03   7.737839e-18   426266
  4.145262e-01   5.103340e-15   3.683104e-03   7.580042e-18   454960
  4.272780e-01   5.207760e-15   3.679614e-03   7.499567e-18   482734
  4.400302e-01   5.315564e-15   3.684412e-03   7.434298e-18   512746
  4.527916e-01   5.411441e-15   3.682552e-03   7.345604e-18   542746
  4.655520e-01   5.465891e-15   3.684426e-03   7.224225e-18   573952
  4.783045e-01   5.538712e-15   3.678870e-03   7.160282e-18   604918
  4.910489e-01   5.631340e-15   3.679488e-03   7.065428e-18   637666
  5.038054e-01   5.682875e-15   3.685840e-03   6.920598e-18   672482
  5.165640e-01   5.772475e-15   3.679909e-03   6.877752e-18   705748
  5.293052e-01   5.816428e-15   3.678052e-03   6.742561e-18   740482
  5.420630e-01   5.856093e-15   3.688653e-03   6.618833e-18   779026
  5.548129e-01   5.891826e-15   3.672495e-03   6.530225e-18   812614
  5.675646e-01   5.938922e-15   3.688923e-03   6.428460e-18   854200
  5.803275e-01   5.976199e-15   3.679836e-03   6.337455e-18   890746
  5.930743e-01   6.017013e-15   3.680017e-03   6.233082e-18   930394
  6.058234e-01   6.053045e-15   3.680076e-03   6.145957e-18   970982
  6.185756e-01   6.075276e-15   3.681715e-03   6.036872e-18   1012600
  6.313355e-01   6.101762e-15   3.685773e-03   5.947012e-18   1055890
  6.440885e-01   6.117780e-15   3.677546e-03   5.856294e-18   1096630
  6.568331e-01   6.110824e-15   3.679931e-03   5.718271e-18   1141378
  6.695858e-01   6.118634e-15   3.681602e-03   5.626223e-18   1186552
  6.823378e-01   6.137515e-15   3.681238e-03   5.541238e-18   1231798
  6.950926e-01   6.121391e-15   3.683520e-03   5.428562e-18   1279234
  7.078494e-01   6.126852e-15   3.681308e-03   5.328923e-18   1325906
  7.206034e-01   6.120225e-15   3.681998e-03   5.223705e-18   1374352
  7.333523e-01   6.108274e-15   3.678754e-03   5.118780e-18   1421950
  7.460986e-01   6.113345e-15   3.681438e-03   5.040122e-18   1472962
  7.588478e-01   6.086039e-15   3.678790e-03   4.933040e-18   1522954
  7.715908e-01   6.064120e-15   3.677970e-03   4.829253e-18   1573804
  7.843534e-01   6.040535e-15   3.691683e-03   4.725382e-18   1632274
  7.971185e-01   6.013818e-15   3.678939e-03   4.642571e-18   1680226
  8.098559e-01   5.982640e-15   3.674931e-03   4.558062e-18   1732682
  8.226044e-01   5.943675e-15   3.684362e-03   4.435836e-18   1792204
  8.353683e-01   5.922978e-15   3.685360e-03   4.354889e-18   1848298
  8.481180e-01   5.886763e-15   3.676906e-03   4.274214e-18   1901050
  8.608642e-01   5.846265e-15   3.681435e-03   4.179431e-18   1961326
  8.736200e-01   5.806472e-15   3.682643e-03   4.094560e-18   2020312
  8.863805e-01   5.767998e-15   3.684838e-03   4.004695e-18   2080930
  8.991420e-01   5.720081e-15   3.683140e-03   3.907230e-18   2140390
  9.118910e-01   5.675299e-15   3.677128e-03   3.836972e-18   2198162
  9.246418e-01   5.627688e-15   3.683722e-03   3.741771e-18   2263864
  9.374012e-01   5.581304e-15   3.683606e-03   3.664205e-18   2326426
  9.501557e-01   5.535093e-15   3.680653e-03   3.586728e-18   2388550
  9.629062e-01   5.472538e-15   3.680356e-03   3.490449e-18   2453098
  9.756546e-01   5.417789e-15   3.679357e-03   3.416333e-18   2517592
  9.884059e-01   5.366520e-15   3.683066e-03   3.342227e-18   2586070
  1.001159e+00   5.310622e-15   3.680738e-03   3.263333e-18   2651842
  1.013911e+00   5.259626e-15   3.680987e-03   3.186595e-18   2720330
  1.026668e+00   5.201753e-15   3.684024e-03   3.118313e-18   2791156
  1.039424e+00   5.147629e-15   3.681208e-03   3.046485e-18   2858554
  1.052176e+00   5.083214e-15   3.681647e-03   2.970750e-18   2929594
  1.064923e+00   5.028873e-15   3.678395e-03   2.901531e-18   2998762
  1.077674e+00   4.967223e-15   3.682468e-03   2.836760e-18   3074188
  1.090422e+00   4.907341e-15   3.678360e-03   2.770948e-18   3143482
  1.103180e+00   4.837686e-15   3.687908e-03   2.694665e-18   3226186
  1.115936e+00   4.786400e-15   3.676634e-03   2.639141e-18   3291158
  1.128688e+00   4.721358e-15   3.685737e-03   2.570268e-18   3375112
  1.141448e+00   4.657933e-15   3.681431e-03   2.509302e-18   3447658
  1.154199e+00   4.598112e-15   3.680732e-03   2.448647e-18   3524626
  1.166950e+00   4.534534e-15   3.680340e-03   2.390119e-18   3602998
  1.179695e+00   4.473231e-15   3.677316e-03   2.335215e-18   3678592
  1.192442e+00   4.411623e-15   3.682841e-03   2.274629e-18   3764122
  1.205202e+00   4.345983e-15   3.684112e-03   2.217704e-18   3846598
  1.217954e+00   4.286603e-15   3.678173e-03   2.162432e-18   3922250
  1.230710e+00   4.216558e-15   3.685590e-03   2.103413e-18   4013032
  1.243470e+00   4.161916e-15   3.681062e-03   2.060145e-18   4091182
  1.256219e+00   4.096022e-15   3.679790e-03   2.008449e-18   4174282
  1.268971e+00   4.038256e-15   3.681900e-03   1.956886e-18   4261978
  1.281726e+00   3.975142e-15   3.682600e-03   1.906699e-18   4348624
  1.294477e+00   3.920801e-15   3.679148e-03   1.863874e-18   4431430
  1.307227e+00   3.852634e-15   3.682586e-03   1.813267e-18   4523290
  1.319983e+00   3.795844e-15   3.681902e-03   1.768560e-18   4611386
  1.332735e+00   3.740524e-15   3.680296e-03   1.726093e-18   4698814
  1.345489e+00   3.679134e-15   3.683391e-03   1.683247e-18   4792984
  1.358246e+00   3.626125e-15   3.682510e-03   1.641250e-18   4883194
  1.370998e+00   3.563278e-15   3.679847e-03   1.599408e-18   4971694
  1.383751e+00   3.505459e-15   3.683258e-03   1.559717e-18   5069434
  1.396503e+00   3.454319e-15   3.679348e-03   1.522085e-18   5157736
  1.409253e+00   3.396636e-15   3.682013e-03   1.483022e-18   5256202
  1.422008e+00   3.342813e-15   3.682033e-03   1.447075e-18   5351990
  1.434759e+00   3.288634e-15   3.679659e-03   1.412111e-18   5444914
  1.447515e+00   3.232837e-15   3.684860e-03   1.372800e-18   5550088
  1.460276e+00   3.182386e-15   3.682696e-03   1.341512e-18   5644774
  1.473027e+00   3.132540e-15   3.679557e-03   1.310076e-18   5739034
  1.485777e+00   3.078807e-15   3.680933e-03   1.275237e-18   5841154
  1.498530e+00   3.028479e-15   3.681993e-03   1.244215e-18   5943448
  1.511286e+00   2.981764e-15   3.682434e-03   1.214164e-18   6045670
  1.524036e+00   2.931394e-15   3.679211e-03   1.183508e-18   6142586
  1.536786e+00   2.881841e-15   3.681853e-03   1.154349e-18   6250738
  1.549543e+00   2.837037e-15   3.683337e-03   1.126054e-18   6357172
  1.562298e+00   2.789487e-15   3.681419e-03   1.099581e-18   6458506
  1.575052e+00   2.743248e-15   3.682170e-03   1.072263e-18   6566290
  1.587803e+00   2.697351e-15   3.679052e-03   1.046321e-18   6667414
  1.600551e+00   2.650974e-15   3.681081e-03   1.020752e-18   6778336
  1.613305e+00   2.609176e-15   3.683166e-03   9.956130e-19   6890218
  1.626056e+00   2.567423e-15   3.679040e-03   9.727887e-19   6992306
  1.638811e+00   2.524044e-15   3.684406e-03   9.483108e-19   7113454
  1.651568e+00   2.485643e-15   3.680582e-03   9.268182e-19   7216216
  1.664317e+00   2.442955e-15   3.680762e-03   9.032699e-19   7328218
  1.677070e+00   2.403373e-15   3.682190e-03   8.826892e-19   7444414
  1.689821e+00   2.367523e-15   3.679673e-03   8.639826e-19   7553290
  1.702576e+00   2.323674e-15   3.684026e-03   8.405051e-19   7676368
  1.715331e+00   2.286817e-15   3.680267e-03   8.212196e-19   7783150
  1.728082e+00   2.251110e-15   3.682357e-03   8.019863e-19   7904570
  1.740836e+00   2.211399e-15   3.680236e-03   7.830144e-19   8017570
  1.753592e+00   2.178787e-15   3.684218e-03   7.651027e-19   8143840
  1.766349e+00   2.141491e-15   3.680993e-03   7.473479e-19   8255134
  1.779097e+00   2.108476e-15   3.679373e-03   7.301243e-19   8371450
  1.791848e+00   2.073374e-15   3.682049e-03   7.123811e-19   8498578
  1.804607e+00   2.043104e-15   3.683747e-03   6.972898e-19   8623180
  1.817364e+00   2.008962e-15   3.682371e-03   6.807533e-19   8742034
  1.830116e+00   1.976095e-15   3.679631e-03   6.655672e-19   8859194
  1.842864e+00   1.944943e-15   3.680027e-03   6.509733e-19   8984386
  1.855615e+00   1.916085e-15   3.681221e-03   6.365079e-19   9111652
  1.868371e+00   1.883246e-15   3.683946e-03   6.210436e-19   9243322
  1.881126e+00   1.855359e-15   3.680271e-03   6.082539e-19   9361378
  1.893877e+00   1.826006e-15   3.681448e-03   5.948298e-19   9491998
  1.906629e+00   1.797326e-15   3.680822e-03   5.814584e-19   9618016
  1.919381e+00   1.770186e-15   3.682003e-03   5.688351e-19   9750178
  1.932133e+00   1.741843e-15   3.680253e-03   5.564746e-19   9875558
  1.944887e+00   1.714541e-15   3.683525e-03   5.437976e-19   10015834
  1.957639e+00   1.689097e-15   3.678626e-03   5.322056e-19   10133344
  1.970392e+00   1.664751e-15   3.684706e-03   5.214282e-19   10282522
  1.983150e+00   1.638373e-15   3.681133e-03   5.094531e-19   10406974
  1.995898e+00   1.614336e-15   3.678810e-03   4.988209e-19   10534378
  2.008651e+00   1.590180e-15   3.684003e-03   4.885610e-19   10684456
  2.021409e+00   1.565468e-15   3.681823e-03   4.777537e-19   10813894
  2.034159e+00   1.542559e-15   3.679680e-03   4.677054e-19   10944626
  2.046911e+00   1.520468e-15   3.682687e-03   4.580019e-19   11091802
  2.059666e+00   1.496347e-15   3.681058e-03   4.484348e-19   11224756
  2.072419e+00   1.473793e-15   3.682125e-03   4.390042e-19   11367730
  2.085174e+00   1.453067e-15   3.681936e-03   4.300365e-19   11507890
  2.097925e+00   1.431904e-15   3.679320e-03   4.211819e-19   11640658
  2.110678e+00   1.410795e-15   3.683383e-03   4.124500e-19   11795380
  2.123435e+00   1.390116e-15   3.682010e-03   4.039255e-19   11933434
  2.136188e+00   1.369977e-15   3.681227e-03   3.960101e-19   12074954
  2.148943e+00   1.350459e-15   3.682833e-03   3.880692e-19   12225142
  2.161693e+00   1.330175e-15   3.678591e-03   3.801935e-19   12356104
  2.174441e+00   1.313059e-15   3.681911e-03   3.730095e-19   12513442
  2.187198e+00   1.292504e-15   3.683046e-03   3.647819e-19   12664810
  2.199955e+00   1.275766e-15   3.682461e-03   3.580393e-19   12811246
  2.212709e+00   1.256966e-15   3.680738e-03   3.508972e-19   12953536
  2.225459e+00   1.239137e-15   3.681278e-03   3.440386e-19   13105042
  2.238213e+00   1.221837e-15   3.681995e-03   3.369835e-19   13258670
  2.250966e+00   1.205123e-15   3.681453e-03   3.306645e-19   13408738
  2.263720e+00   1.187847e-15   3.681812e-03   3.242606e-19   13562320
  2.276472e+00   1.171748e-15   3.680281e-03   3.182117e-19   13709062
  2.289223e+00   1.155735e-15   3.682002e-03   3.118855e-19   13870258
  2.301982e+00   1.140281e-15   3.683866e-03   3.060428e-19   14032714
  2.314735e+00   1.123896e-15   3.678901e-03   3.003301e-19   14169232
  2.327485e+00   1.109386e-15   3.682472e-03   2.945574e-19   14339422
  2.340238e+00   1.093082e-15   3.680575e-03   2.888171e-19   14489330
  2.352991e+00   1.079379e-15   3.682051e-03   2.837140e-19   14654458
  2.365744e+00   1.064185e-15   3.680808e-03   2.783272e-19   14808292
  2.378495e+00   1.050438e-15   3.681362e-03   2.731438e-19   14970130
  2.391248e+00   1.036128e-15   3.681409e-03   2.682812e-19   15131626
  2.403999e+00   1.021668e-15   3.680405e-03   2.629284e-19   15289198
  2.416755e+00   1.007899e-15   3.683835e-03   2.578315e-19   15466552
  2.429511e+00   9.954050e-16   3.680792e-03   2.533830e-19   15616714
  2.442261e+00   9.825045e-16   3.680631e-03   2.489546e-19   15780506
  2.455014e+00   9.683755e-16   3.682312e-03   2.439437e-19   15953542
  2.467771e+00   9.559725e-16   3.682809e-03   2.396817e-19   16121296
  2.480521e+00   9.436695e-16   3.678892e-03   2.355241e-19   16270762
  2.493272e+00   9.312748e-16   3.683074e-03   2.311501e-19   16457182
  2.506029e+00   9.192505e-16   3.682337e-03   2.271216e-19   16623562
  2.518783e+00   9.072917e-16   3.680725e-03   2.231741e-19   16785784
  2.531534e+00   8.958064e-16   3.681653e-03   2.191983e-19   16959370
  2.544288e+00   8.844053e-16   3.682022e-03   2.153903e-19   17132774
  2.557041e+00   8.731157e-16   3.680981e-03   2.113961e-19   17300602
  2.569795e+00   8.619973e-16   3.682396e-03   2.077734e-19   17480656
  2.582549e+00   8.506396e-16   3.681028e-03   2.041082e-19   17647558
  2.595301e+00   8.398223e-16   3.681358e-03   2.003414e-19   17823778
  2.608054e+00   8.294379e-16   3.681613e-03   1.970581e-19   18001594
  2.620806e+00   8.188503e-16   3.680526e-03   1.936460e-19   18172300
  2.633559e+00   8.089223e-16   3.682066e-03   1.904726e-19   18356770
  2.646316e+00   7.984096e-16   3.683321e-03   1.870295e-19   18541082
  2.659073e+00   7.886279e-16   3.681934e-03   1.838378e-19   18713914
  2.671823e+00   7.787311e-16   3.679083e-03   1.807784e-19   18879742
  2.684574e+00   7.696645e-16   3.682617e-03   1.777664e-19   19077592
  2.697329e+00   7.600575e-16   3.681921e-03   1.747418e-19   19255474
  2.710083e+00   7.504686e-16   3.681561e-03   1.717571e-19   19436278
  2.722832e+00   7.411191e-16   3.678954e-03   1.689189e-19   19605994
  2.735585e+00   7.319307e-16   3.684099e-03   1.659944e-19   19817344
  2.748342e+00   7.234976e-16   3.681109e-03   1.634210e-19   19985702
  2.761094e+00   7.147543e-16   3.681644e-03   1.606628e-19   20175730
  2.773845e+00   7.057505e-16   3.679912e-03   1.578872e-19   20352682
  2.786598e+00   6.973904e-16   3.683498e-03   1.553754e-19   20559616
  2.799356e+00   6.891174e-16   3.682280e-03   1.528718e-19   20741518
  2.812105e+00   6.807617e-16   3.678894e-03   1.504583e-19   20912026
  2.824855e+00   6.725587e-16   3.682015e-03   1.478642e-19   21121018
  2.837610e+00   6.649417e-16   3.681802e-03   1.456126e-19   21310012
  2.850362e+00   6.568449e-16   3.680813e-03   1.432205e-19   21496154
  2.863118e+00   6.490657e-16   3.683473e-03   1.408605e-19   21705946
  2.875873e+00   6.416268e-16   3.680669e-03   1.386438e-19   21882562
  2.888626e+00   6.337101e-16   3.682162e-03   1.363498e-19   22085428
  2.901384e+00   6.261101e-16   3.683214e-03   1.341871e-19   22287106
  2.914134e+00   6.188548e-16   3.678437e-03   1.320908e-19   22455010
  2.926883e+00   6.122478e-16   3.681607e-03   1.301568e-19   22671694
  2.939638e+00   6.046561e-16   3.682507e-03   1.278824e-19   22874368
  2.952394e+00   5.977528e-16   3.682002e-03   1.259637e-19   23070146
  2.965147e+00   5.908719e-16   3.681033e-03   1.240361e-19   23264038
  2.977898e+00   5.838984e-16   3.680981e-03   1.220429e-19   23464210
  2.990653e+00   5.775851e-16   3.683188e-03   1.201940e-19   23679208
  3.003408e+00   5.707233e-16   3.681184e-03   1.183292e-19   23868658
  3.016160e+00   5.642505e-16   3.680900e-03   1.164166e-19   24070582
  3.028912e+00   5.577925e-16   3.681593e-03   1.147647e-19   24278842
  3.041665e+00   5.516098e-16   3.681417e-03   1.129657e-19   24482272
  3.054418e+00   5.454136e-16   3.681719e-03   1.112350e-19   24689510
  3.067171e+00   5.393343e-16   3.681372e-03   1.095694e-19   24894634
  3.079925e+00   5.335294e-16   3.682228e-03   1.079984e-19   25108474
  3.092680e+00   5.271441e-16   3.681825e-03   1.062902e-19   25313116
  3.105433e+00   5.214620e-16   3.680868e-03   1.046797e-19   25515970
  3.118184e+00   5.154783e-16   3.681155e-03   1.030853e-19   25727962
  3.130938e+00   5.100318e-16   3.682510e-03   1.016061e-19   25948954
  3.143694e+00   5.045494e-16   3.682026e-03   1.000825e-19   26157220
  3.156445e+00   4.988726e-16   3.679581e-03   9.865596e-20   26351546
  3.169196e+00   4.933978e-16   3.682249e-03   9.714039e-20   26585314
  3.181952e+00   4.881380e-16   3.682365e-03   9.570459e-20   26800630
  3.194706e+00   4.826812e-16   3.680714e-03   9.434663e-20   27003376
  3.207455e+00   4.773501e-16   3.679962e-03   9.293107e-20   27213202
  3.220208e+00   4.724088e-16   3.683357e-03   9.164569e-20   27455194
  3.232966e+00   4.672597e-16   3.682253e-03   9.030761e-20   27666070
  3.245719e+00   4.619711e-16   3.680401e-03   8.896295e-20   27870280
  3.258468e+00   4.572935e-16   3.680260e-03   8.770285e-20   28088090
  3.271220e+00   4.522882e-16   3.682540e-03   8.641636e-20   28326262
  3.283977e+00   4.475133e-16   3.682410e-03   8.520250e-20   28546906
  3.296732e+00   4.427477e-16   3.681571e-03   8.399155e-20   28762552
  3.309484e+00   4.379572e-16   3.681027e-03   8.277492e-20   28979734
  3.322237e+00   4.332702e-16   3.681948e-03   8.161856e-20   29211106
  3.334990e+00   4.289183e-16   3.681286e-03   8.047442e-20   29431738
  3.347741e+00   4.244611e-16   3.680281e-03   7.936765e-20   29648776
  3.360493e+00   4.200067e-16   3.682059e-03   7.825261e-20   29888654
  3.373249e+00   4.152382e-16   3.682995e-03   7.709194e-20   30123490
  3.386003e+00   4.111549e-16   3.680742e-03   7.608748e-20   30334570
  3.398755e+00   4.069159e-16   3.681166e-03   7.504039e-20   30566524
  3.411507e+00   4.028263e-16   3.681508e-03   7.405480e-20   30798370
  3.424265e+00   3.986788e-16   3.684101e-03   7.297376e-20   31052026
  3.437018e+00   3.944786e-16   3.679094e-03   7.200414e-20   31241782
  3.449769e+00   3.903586e-16   3.682408e-03   7.093536e-20   31502128
  3.462523e+00   3.864288e-16   3.680952e-03   7.003382e-20   31721474
  3.475274e+00   3.825117e-16   3.681379e-03   6.906290e-20   31960210
  3.488028e+00   3.785787e-16   3.681819e-03   6.812427e-20   32200582
  3.500782e+00   3.745732e-16   3.681186e-03   6.719970e-20   32429512
  3.513537e+00   3.710512e-16   3.683389e-03   6.631686e-20   32685226
  3.526292e+00   3.674135e-16   3.680900e-03   6.548525e-20   32900830
  3.539043e+00   3.635338e-16   3.680394e-03   6.458560e-20   33135682
  3.551794e+00   3.598222e-16   3.681624e-03   6.370513e-20   33385288
  3.564548e+00   3.563428e-16   3.681804e-03   6.287232e-20   33625706
  3.577303e+00   3.528071e-16   3.682363e-03   6.204611e-20   33873550
  3.590054e+00   3.493419e-16   3.679768e-03   6.126868e-20   34091770
