# power spectrum of delta_kessence
# redshift z=1.983194
# k              Pk             sigma(k)       sigma(Pk)      count
  9.713012e-03   1.474533e-07   2.406229e-03   1.748958e-08   146
  2.072432e-02   1.461067e-06   3.528511e-03   5.175200e-08   1042
  3.284725e-02   4.200448e-06   3.519819e-03   8.489359e-08   2698
  4.516399e-02   8.083789e-06   3.571852e-03   1.147448e-07   5206
  5.773095e-02   1.381722e-05   3.674394e-03   1.556311e-07   8752
  7.053126e-02   2.148821e-05   3.718866e-03   1.895196e-07   13258
  8.325183e-02   2.870650e-05   3.633038e-03   2.157629e-07   18070
  9.586244e-02   3.382425e-05   3.646001e-03   2.186662e-07   24050
  1.086731e-01   4.024237e-05   3.743375e-03   2.268457e-07   31720
  1.214673e-01   5.000750e-05   3.655693e-03   2.533768e-07   38722
  1.341503e-01   5.908429e-05   3.664149e-03   2.735922e-07   47398
  1.468737e-01   6.531044e-05   3.676840e-03   2.727016e-07   56986
  1.596345e-01   6.993780e-05   3.691904e-03   2.709812e-07   67552
  1.723758e-01   7.736148e-05   3.670421e-03   2.765085e-07   78310
  1.850973e-01   8.598354e-05   3.676755e-03   2.880086e-07   90514
  1.978078e-01   9.561893e-05   3.661019e-03   3.009566e-07   102938
  2.105352e-01   9.945480e-05   3.688328e-03   2.907614e-07   117412
  2.233038e-01   1.045203e-04   3.687633e-03   2.874792e-07   132106
  2.360543e-01   1.100560e-04   3.674616e-03   2.866377e-07   147154
  2.487863e-01   1.172233e-04   3.675727e-03   2.902742e-07   163522
  2.615607e-01   1.248231e-04   3.698362e-03   2.937686e-07   181804
  2.742948e-01   1.289282e-04   3.657995e-03   2.920198e-07   197722
  2.870326e-01   1.320755e-04   3.695982e-03   2.828386e-07   218866
  2.998036e-01   1.375344e-04   3.677083e-03   2.825137e-07   237542
  3.125403e-01   1.421515e-04   3.676719e-03   2.802056e-07   258136
  3.252883e-01   1.471733e-04   3.682574e-03   2.788380e-07   280066
  3.380302e-01   1.502448e-04   3.674707e-03   2.739996e-07   301774
  3.507809e-01   1.531297e-04   3.685866e-03   2.683464e-07   326050
  3.635453e-01   1.568802e-04   3.682723e-03   2.658480e-07   349792
  3.763059e-01   1.602869e-04   3.686387e-03   2.626041e-07   375154
  3.890549e-01   1.634529e-04   3.673994e-03   2.594566e-07   399742
  4.017814e-01   1.664702e-04   3.673301e-03   2.560155e-07   426266
  4.145262e-01   1.673812e-04   3.683104e-03   2.487401e-07   454960
  4.272780e-01   1.699340e-04   3.679614e-03   2.445637e-07   482734
  4.400302e-01   1.720655e-04   3.684412e-03   2.405301e-07   512746
  4.527916e-01   1.734531e-04   3.682552e-03   2.357256e-07   542746
  4.655520e-01   1.742250e-04   3.684426e-03   2.303086e-07   573952
  4.783045e-01   1.752317e-04   3.678870e-03   2.261968e-07   604918
  4.910489e-01   1.766712e-04   3.679488e-03   2.217259e-07   637666
  5.038054e-01   1.770691e-04   3.685840e-03   2.157547e-07   672482
  5.165640e-01   1.781696e-04   3.679909e-03   2.126180e-07   705748
  5.293052e-01   1.781381e-04   3.678052e-03   2.067611e-07   740482
  5.420630e-01   1.776309e-04   3.688653e-03   2.006007e-07   779026
  5.548129e-01   1.775728e-04   3.672495e-03   1.967446e-07   812614
  5.675646e-01   1.770391e-04   3.688923e-03   1.916093e-07   854200
  5.803275e-01   1.766459e-04   3.679836e-03   1.871729e-07   890746
  5.930743e-01   1.762867e-04   3.680017e-03   1.827712e-07   930394
  6.058234e-01   1.756760e-04   3.680076e-03   1.782293e-07   970982
  6.185756e-01   1.748950e-04   3.681715e-03   1.741568e-07   1012600
  6.313355e-01   1.741382e-04   3.685773e-03   1.697186e-07   1055890
  6.440885e-01   1.729790e-04   3.677546e-03   1.654108e-07   1096630
  6.568331e-01   1.713597e-04   3.679931e-03   1.603155e-07   1141378
  6.695858e-01   1.700206e-04   3.681602e-03   1.562061e-07   1186552
  6.823378e-01   1.691731e-04   3.681238e-03   1.526878e-07   1231798
  6.950926e-01   1.672615e-04   3.683520e-03   1.483852e-07   1279234
  7.078494e-01   1.657462e-04   3.681308e-03   1.438474e-07   1325906
  7.206034e-01   1.640882e-04   3.681998e-03   1.399312e-07   1374352
  7.333523e-01   1.627536e-04   3.678754e-03   1.363885e-07   1421950
  7.460986e-01   1.609153e-04   3.681438e-03   1.324838e-07   1472962
  7.588478e-01   1.593175e-04   3.678790e-03   1.289753e-07   1522954
  7.715908e-01   1.575104e-04   3.677970e-03   1.253776e-07   1573804
  7.843534e-01   1.553432e-04   3.691683e-03   1.216551e-07   1632274
  7.971185e-01   1.533153e-04   3.678939e-03   1.183296e-07   1680226
  8.098559e-01   1.514357e-04   3.674931e-03   1.150895e-07   1732682
  8.226044e-01   1.494002e-04   3.684362e-03   1.116532e-07   1792204
  8.353683e-01   1.475378e-04   3.685360e-03   1.085294e-07   1848298
  8.481180e-01   1.456107e-04   3.676906e-03   1.057716e-07   1901050
  8.608642e-01   1.435656e-04   3.681435e-03   1.025901e-07   1961326
  8.736200e-01   1.419200e-04   3.682643e-03   9.992764e-08   2020312
  8.863805e-01   1.398164e-04   3.684838e-03   9.702592e-08   2080930
  8.991420e-01   1.377981e-04   3.683140e-03   9.411351e-08   2140390
  9.118910e-01   1.357268e-04   3.677128e-03   9.160314e-08   2198162
  9.246418e-01   1.338313e-04   3.683722e-03   8.906546e-08   2263864
  9.374012e-01   1.317283e-04   3.683606e-03   8.647106e-08   2326426
  9.501557e-01   1.301072e-04   3.680653e-03   8.423429e-08   2388550
  9.629062e-01   1.280423e-04   3.680356e-03   8.172870e-08   2453098
  9.756546e-01   1.261894e-04   3.679357e-03   7.955705e-08   2517592
  9.884059e-01   1.242746e-04   3.683066e-03   7.739001e-08   2586070
  1.001159e+00   1.221984e-04   3.680738e-03   7.501511e-08   2651842
  1.013911e+00   1.207328e-04   3.680987e-03   7.327626e-08   2720330
  1.026668e+00   1.188209e-04   3.684024e-03   7.114451e-08   2791156
  1.039424e+00   1.171364e-04   3.681208e-03   6.932156e-08   2858554
  1.052176e+00   1.154983e-04   3.681647e-03   6.742089e-08   2929594
  1.064923e+00   1.138967e-04   3.678395e-03   6.577062e-08   2998762
  1.077674e+00   1.120654e-04   3.682468e-03   6.386260e-08   3074188
  1.090422e+00   1.104516e-04   3.678360e-03   6.233407e-08   3143482
  1.103180e+00   1.086729e-04   3.687908e-03   6.056143e-08   3226186
  1.115936e+00   1.072127e-04   3.676634e-03   5.903753e-08   3291158
  1.128688e+00   1.055360e-04   3.685737e-03   5.746742e-08   3375112
  1.141448e+00   1.039532e-04   3.681431e-03   5.599303e-08   3447658
  1.154199e+00   1.026510e-04   3.680732e-03   5.469917e-08   3524626
  1.166950e+00   1.010828e-04   3.680340e-03   5.327162e-08   3602998
  1.179695e+00   9.965151e-05   3.677316e-03   5.199358e-08   3678592
  1.192442e+00   9.825908e-05   3.682841e-03   5.069731e-08   3764122
  1.205202e+00   9.688516e-05   3.684112e-03   4.944525e-08   3846598
  1.217954e+00   9.563025e-05   3.678173e-03   4.833193e-08   3922250
  1.230710e+00   9.421769e-05   3.685590e-03   4.708166e-08   4013032
  1.243470e+00   9.291656e-05   3.681062e-03   4.594502e-08   4091182
  1.256219e+00   9.165391e-05   3.679790e-03   4.487467e-08   4174282
  1.268971e+00   9.043039e-05   3.681900e-03   4.383245e-08   4261978
  1.281726e+00   8.911984e-05   3.682600e-03   4.282221e-08   4348624
  1.294477e+00   8.804334e-05   3.679148e-03   4.186390e-08   4431430
  1.307227e+00   8.674085e-05   3.682586e-03   4.086345e-08   4523290
  1.319983e+00   8.565728e-05   3.681902e-03   3.993630e-08   4611386
  1.332735e+00   8.460875e-05   3.680296e-03   3.901748e-08   4698814
  1.345489e+00   8.346171e-05   3.683391e-03   3.816779e-08   4792984
  1.358246e+00   8.247031e-05   3.682510e-03   3.733376e-08   4883194
  1.370998e+00   8.126460e-05   3.679847e-03   3.649284e-08   4971694
  1.383751e+00   8.034610e-05   3.683258e-03   3.576243e-08   5069434
  1.396503e+00   7.932714e-05   3.679348e-03   3.497155e-08   5157736
  1.409253e+00   7.827700e-05   3.682013e-03   3.417781e-08   5256202
  1.422008e+00   7.744305e-05   3.682033e-03   3.352018e-08   5351990
  1.434759e+00   7.633885e-05   3.679659e-03   3.272917e-08   5444914
  1.447515e+00   7.537462e-05   3.684860e-03   3.199519e-08   5550088
  1.460276e+00   7.460276e-05   3.682696e-03   3.143120e-08   5644774
  1.473027e+00   7.365839e-05   3.679557e-03   3.077907e-08   5739034
  1.485777e+00   7.281894e-05   3.680933e-03   3.014381e-08   5841154
  1.498530e+00   7.194313e-05   3.681993e-03   2.953223e-08   5943448
  1.511286e+00   7.111166e-05   3.682434e-03   2.895413e-08   6045670
  1.524036e+00   7.030349e-05   3.679211e-03   2.837457e-08   6142586
  1.536786e+00   6.951375e-05   3.681853e-03   2.784285e-08   6250738
  1.549543e+00   6.868121e-05   3.683337e-03   2.725783e-08   6357172
  1.562298e+00   6.786303e-05   3.681419e-03   2.669693e-08   6458506
  1.575052e+00   6.711274e-05   3.682170e-03   2.619155e-08   6566290
  1.587803e+00   6.641186e-05   3.679052e-03   2.573136e-08   6667414
  1.600551e+00   6.566782e-05   3.681081e-03   2.524684e-08   6778336
  1.613305e+00   6.491911e-05   3.683166e-03   2.475495e-08   6890218
  1.626056e+00   6.420363e-05   3.679040e-03   2.429309e-08   6992306
  1.638811e+00   6.349608e-05   3.684406e-03   2.383993e-08   7113454
  1.651568e+00   6.284055e-05   3.680582e-03   2.340760e-08   7216216
  1.664317e+00   6.214209e-05   3.680762e-03   2.298843e-08   7328218
  1.677070e+00   6.143892e-05   3.682190e-03   2.252573e-08   7444414
  1.689821e+00   6.072703e-05   3.679673e-03   2.209806e-08   7553290
  1.702576e+00   6.016595e-05   3.684026e-03   2.175186e-08   7676368
  1.715331e+00   5.954826e-05   3.680267e-03   2.137498e-08   7783150
  1.728082e+00   5.887317e-05   3.682357e-03   2.096999e-08   7904570
  1.740836e+00   5.829050e-05   3.680236e-03   2.060158e-08   8017570
  1.753592e+00   5.764414e-05   3.684218e-03   2.022855e-08   8143840
  1.766349e+00   5.708371e-05   3.680993e-03   1.987834e-08   8255134
  1.779097e+00   5.649541e-05   3.679373e-03   1.955610e-08   8371450
  1.791848e+00   5.591301e-05   3.682049e-03   1.920195e-08   8498578
  1.804607e+00   5.539015e-05   3.683747e-03   1.888532e-08   8623180
  1.817364e+00   5.481798e-05   3.682371e-03   1.856362e-08   8742034
  1.830116e+00   5.420099e-05   3.679631e-03   1.822799e-08   8859194
  1.842864e+00   5.369098e-05   3.680027e-03   1.793151e-08   8984386
  1.855615e+00   5.316904e-05   3.681221e-03   1.764403e-08   9111652
  1.868371e+00   5.260900e-05   3.683946e-03   1.733215e-08   9243322
  1.881126e+00   5.212131e-05   3.680271e-03   1.705501e-08   9361378
  1.893877e+00   5.161205e-05   3.681448e-03   1.676167e-08   9491998
  1.906629e+00   5.112131e-05   3.680822e-03   1.650245e-08   9618016
  1.919381e+00   5.063227e-05   3.682003e-03   1.622412e-08   9750178
  1.932133e+00   5.012047e-05   3.680253e-03   1.596592e-08   9875558
  1.944887e+00   4.961431e-05   3.683525e-03   1.569618e-08   10015834
  1.957639e+00   4.914373e-05   3.678626e-03   1.545028e-08   10133344
  1.970392e+00   4.866960e-05   3.684706e-03   1.519955e-08   10282522
  1.983150e+00   4.826749e-05   3.681133e-03   1.497405e-08   10406974
  1.995898e+00   4.778280e-05   3.678810e-03   1.473659e-08   10534378
  2.008651e+00   4.737931e-05   3.684003e-03   1.450230e-08   10684456
  2.021409e+00   4.689972e-05   3.681823e-03   1.427892e-08   10813894
  2.034159e+00   4.647515e-05   3.679680e-03   1.406396e-08   10944626
  2.046911e+00   4.602575e-05   3.682687e-03   1.384028e-08   11091802
  2.059666e+00   4.561327e-05   3.681058e-03   1.363185e-08   11224756
  2.072419e+00   4.521553e-05   3.682125e-03   1.342558e-08   11367730
  2.085174e+00   4.477548e-05   3.681936e-03   1.322713e-08   11507890
  2.097925e+00   4.434943e-05   3.679320e-03   1.301257e-08   11640658
  2.110678e+00   4.398561e-05   3.683383e-03   1.282730e-08   11795380
  2.123435e+00   4.354426e-05   3.682010e-03   1.263466e-08   11933434
  2.136188e+00   4.316193e-05   3.681227e-03   1.243401e-08   12074954
  2.148943e+00   4.279504e-05   3.682833e-03   1.225965e-08   12225142
  2.161693e+00   4.239477e-05   3.678591e-03   1.208248e-08   12356104
  2.174441e+00   4.202154e-05   3.681911e-03   1.189166e-08   12513442
  2.187198e+00   4.164911e-05   3.683046e-03   1.172239e-08   12664810
  2.199955e+00   4.127582e-05   3.682461e-03   1.154605e-08   12811246
  2.212709e+00   4.090708e-05   3.680738e-03   1.138384e-08   12953536
  2.225459e+00   4.052321e-05   3.681278e-03   1.120629e-08   13105042
  2.238213e+00   4.019509e-05   3.681995e-03   1.106106e-08   13258670
  2.250966e+00   3.984562e-05   3.681453e-03   1.090207e-08   13408738
  2.263720e+00   3.950061e-05   3.681812e-03   1.074189e-08   13562320
  2.276472e+00   3.918131e-05   3.680281e-03   1.060004e-08   13709062
  2.289223e+00   3.881578e-05   3.682002e-03   1.043514e-08   13870258
  2.301982e+00   3.850963e-05   3.683866e-03   1.030521e-08   14032714
  2.314735e+00   3.815095e-05   3.678901e-03   1.015252e-08   14169232
  2.327485e+00   3.783422e-05   3.682472e-03   1.000621e-08   14339422
  2.340238e+00   3.751150e-05   3.680575e-03   9.866355e-09   14489330
  2.352991e+00   3.719249e-05   3.682051e-03   9.732557e-09   14654458
  2.365744e+00   3.687310e-05   3.680808e-03   9.598362e-09   14808292
  2.378495e+00   3.656322e-05   3.681362e-03   9.472029e-09   14970130
  2.391248e+00   3.626149e-05   3.681409e-03   9.344591e-09   15131626
  2.403999e+00   3.593746e-05   3.680405e-03   9.207880e-09   15289198
  2.416755e+00   3.565817e-05   3.683835e-03   9.085696e-09   15466552
  2.429511e+00   3.536736e-05   3.680792e-03   8.962038e-09   15616714
  2.442261e+00   3.504043e-05   3.680631e-03   8.839768e-09   15780506
  2.455014e+00   3.476581e-05   3.682312e-03   8.725321e-09   15953542
  2.467771e+00   3.448041e-05   3.682809e-03   8.606414e-09   16121296
  2.480521e+00   3.420040e-05   3.678892e-03   8.495525e-09   16270762
  2.493272e+00   3.391779e-05   3.683074e-03   8.376955e-09   16457182
  2.506029e+00   3.363894e-05   3.682337e-03   8.273291e-09   16623562
  2.518783e+00   3.335989e-05   3.680725e-03   8.155419e-09   16785784
  2.531534e+00   3.309036e-05   3.681653e-03   8.049995e-09   16959370
  2.544288e+00   3.281282e-05   3.682022e-03   7.939493e-09   17132774
  2.557041e+00   3.254698e-05   3.680981e-03   7.837734e-09   17300602
  2.569795e+00   3.227584e-05   3.682396e-03   7.738170e-09   17480656
  2.582549e+00   3.202263e-05   3.681028e-03   7.642581e-09   17647558
  2.595301e+00   3.176725e-05   3.681358e-03   7.540745e-09   17823778
  2.608054e+00   3.151683e-05   3.681613e-03   7.445203e-09   18001594
  2.620806e+00   3.124707e-05   3.680526e-03   7.345487e-09   18172300
  2.633559e+00   3.100279e-05   3.682066e-03   7.257323e-09   18356770
  2.646316e+00   3.073583e-05   3.683321e-03   7.149759e-09   18541082
  2.659073e+00   3.050925e-05   3.681934e-03   7.068966e-09   18713914
  2.671823e+00   3.025676e-05   3.679083e-03   6.979523e-09   18879742
  2.684574e+00   3.002495e-05   3.682617e-03   6.891074e-09   19077592
  2.697329e+00   2.977142e-05   3.681921e-03   6.796061e-09   19255474
  2.710083e+00   2.955899e-05   3.681561e-03   6.718957e-09   19436278
  2.722832e+00   2.929831e-05   3.678954e-03   6.637965e-09   19605994
  2.735585e+00   2.907849e-05   3.684099e-03   6.545760e-09   19817344
  2.748342e+00   2.883780e-05   3.681109e-03   6.470427e-09   19985702
  2.761094e+00   2.861919e-05   3.681644e-03   6.389701e-09   20175730
  2.773845e+00   2.840574e-05   3.679912e-03   6.310055e-09   20352682
  2.786598e+00   2.817946e-05   3.683498e-03   6.233741e-09   20559616
  2.799356e+00   2.797240e-05   3.682280e-03   6.161521e-09   20741518
  2.812105e+00   2.773772e-05   3.678894e-03   6.082728e-09   20912026
  2.824855e+00   2.752947e-05   3.682015e-03   6.007870e-09   21121018
  2.837610e+00   2.731015e-05   3.681802e-03   5.936478e-09   21310012
  2.850362e+00   2.709652e-05   3.680813e-03   5.861396e-09   21496154
  2.863118e+00   2.688168e-05   3.683473e-03   5.785461e-09   21705946
  2.875873e+00   2.667256e-05   3.680669e-03   5.719513e-09   21882562
  2.888626e+00   2.647687e-05   3.682162e-03   5.650003e-09   22085428
  2.901384e+00   2.627633e-05   3.683214e-03   5.583731e-09   22287106
  2.914134e+00   2.606048e-05   3.678437e-03   5.516522e-09   22455010
  2.926883e+00   2.585238e-05   3.681607e-03   5.445991e-09   22671694
  2.939638e+00   2.566653e-05   3.682507e-03   5.383061e-09   22874368
  2.952394e+00   2.546686e-05   3.682002e-03   5.318356e-09   23070146
  2.965147e+00   2.526788e-05   3.681033e-03   5.253198e-09   23264038
  2.977898e+00   2.508345e-05   3.680981e-03   5.197393e-09   23464210
  2.990653e+00   2.488398e-05   3.683188e-03   5.130278e-09   23679208
  3.003408e+00   2.469646e-05   3.681184e-03   5.072578e-09   23868658
  3.016160e+00   2.450303e-05   3.680900e-03   5.012349e-09   24070582
  3.028912e+00   2.432389e-05   3.681593e-03   4.951699e-09   24278842
  3.041665e+00   2.414932e-05   3.681417e-03   4.897170e-09   24482272
  3.054418e+00   2.394297e-05   3.681719e-03   4.836458e-09   24689510
  3.067171e+00   2.376880e-05   3.681372e-03   4.780877e-09   24894634
  3.079925e+00   2.359189e-05   3.682228e-03   4.725607e-09   25108474
  3.092680e+00   2.341135e-05   3.681825e-03   4.670878e-09   25313116
  3.105433e+00   2.323267e-05   3.680868e-03   4.615721e-09   25515970
  3.118184e+00   2.306044e-05   3.681155e-03   4.562615e-09   25727962
  3.130938e+00   2.288323e-05   3.682510e-03   4.508761e-09   25948954
  3.143694e+00   2.270586e-05   3.682026e-03   4.454805e-09   26157220
  3.156445e+00   2.253253e-05   3.679581e-03   4.404550e-09   26351546
  3.169196e+00   2.236565e-05   3.682249e-03   4.353073e-09   26585314
  3.181952e+00   2.220049e-05   3.682365e-03   4.304730e-09   26800630
  3.194706e+00   2.202430e-05   3.680714e-03   4.253743e-09   27003376
  3.207455e+00   2.186790e-05   3.679962e-03   4.210004e-09   27213202
  3.220208e+00   2.170027e-05   3.683357e-03   4.157598e-09   27455194
  3.232966e+00   2.153352e-05   3.682253e-03   4.110275e-09   27666070
  3.245719e+00   2.137351e-05   3.680401e-03   4.065210e-09   27870280
  3.258468e+00   2.123002e-05   3.680260e-03   4.022077e-09   28088090
  3.271220e+00   2.106268e-05   3.682540e-03   3.974375e-09   28326262
  3.283977e+00   2.091097e-05   3.682410e-03   3.930281e-09   28546906
  3.296732e+00   2.075284e-05   3.681571e-03   3.884994e-09   28762552
  3.309484e+00   2.058978e-05   3.681027e-03   3.842076e-09   28979734
  3.322237e+00   2.044201e-05   3.681948e-03   3.798562e-09   29211106
  3.334990e+00   2.028434e-05   3.681286e-03   3.755800e-09   29431738
  3.347741e+00   2.014103e-05   3.680281e-03   3.716315e-09   29648776
  3.360493e+00   1.998990e-05   3.682059e-03   3.672805e-09   29888654
  3.373249e+00   1.985239e-05   3.682995e-03   3.632981e-09   30123490
  3.386003e+00   1.969557e-05   3.680742e-03   3.592690e-09   30334570
  3.398755e+00   1.955094e-05   3.681166e-03   3.553141e-09   30566524
  3.411507e+00   1.941377e-05   3.681508e-03   3.514335e-09   30798370
  3.424265e+00   1.925993e-05   3.684101e-03   3.471761e-09   31052026
  3.437018e+00   1.912536e-05   3.679094e-03   3.438505e-09   31241782
  3.449769e+00   1.898046e-05   3.682408e-03   3.398341e-09   31502128
  3.462523e+00   1.883178e-05   3.680952e-03   3.361152e-09   31721474
  3.475274e+00   1.869964e-05   3.681379e-03   3.323851e-09   31960210
  3.488028e+00   1.856120e-05   3.681819e-03   3.286520e-09   32200582
  3.500782e+00   1.842461e-05   3.681186e-03   3.251312e-09   32429512
  3.513537e+00   1.828330e-05   3.683389e-03   3.214630e-09   32685226
  3.526292e+00   1.815826e-05   3.680900e-03   3.183368e-09   32900830
  3.539043e+00   1.801628e-05   3.680394e-03   3.145743e-09   33135682
  3.551794e+00   1.788953e-05   3.681624e-03   3.114373e-09   33385288
  3.564548e+00   1.776147e-05   3.681804e-03   3.079209e-09   33625706
  3.577303e+00   1.763287e-05   3.682363e-03   3.045491e-09   33873550
  3.590054e+00   1.749647e-05   3.679768e-03   3.011754e-09   34091770
  3.602807e+00   1.736424e-05   3.682821e-03   2.978226e-09   34362160
