# power spectrum of delta
# redshift z=-0.013098
# k              Pk             sigma(k)       sigma(Pk)      count
  5.011399e-03   4.457763e-05   7.667927e-04   8.724585e-06   18
  1.037418e-02   1.294013e-03   1.725047e-03   1.490842e-04   128
  1.616528e-02   5.772358e-03   1.646572e-03   3.261635e-04   314
  2.269071e-02   1.390378e-02   1.954354e-03   5.419541e-04   728
  2.897169e-02   2.642130e-02   1.717946e-03   8.863190e-04   1016
  3.518826e-02   3.668555e-02   1.880676e-03   9.126131e-04   1682
  4.169479e-02   5.459116e-02   1.831736e-03   1.131716e-03   2300
  4.790974e-02   6.983581e-02   1.770731e-03   1.308441e-03   2906
  5.429022e-02   9.194595e-02   1.892687e-03   1.493678e-03   4040
  6.068098e-02   1.199276e-01   1.775551e-03   1.783052e-03   4712
  6.698900e-02   1.505719e-01   1.857705e-03   1.961022e-03   6002
  7.346135e-02   1.777654e-01   1.857594e-03   2.138325e-03   7256
  7.977379e-02   2.131080e-01   1.772571e-03   2.436215e-03   8120
  8.609019e-02   2.331791e-01   1.864951e-03   2.357508e-03   9950
  9.253636e-02   2.608196e-01   1.853578e-03   2.408592e-03   11384
  9.885187e-02   2.802188e-01   1.809244e-03   2.550663e-03   12666
  1.052712e-01   3.157810e-01   1.889168e-03   2.547478e-03   15104
  1.117654e-01   3.460246e-01   1.850532e-03   2.700786e-03   16616
  1.180754e-01   3.916985e-01   1.799489e-03   2.922139e-03   18026
  1.244216e-01   4.289567e-01   1.853405e-03   2.960777e-03   20696
  1.308065e-01   4.655612e-01   1.827918e-03   3.121423e-03   22436
  1.371558e-01   5.065008e-01   1.845873e-03   3.167681e-03   24962
  1.435394e-01   5.481489e-01   1.831283e-03   3.324384e-03   27176
  1.499133e-01   5.735477e-01   1.847268e-03   3.342724e-03   29810
  1.562775e-01   6.106200e-01   1.828450e-03   3.443716e-03   32120
  1.626776e-01   6.541976e-01   1.865216e-03   3.517574e-03   35432
  1.690383e-01   7.027186e-01   1.814577e-03   3.628363e-03   37238
  1.754019e-01   7.443516e-01   1.856016e-03   3.667045e-03   41072
  1.817869e-01   7.916147e-01   1.834293e-03   3.798745e-03   43472
  1.881565e-01   8.356299e-01   1.848176e-03   3.879177e-03   47042
  1.945298e-01   8.991842e-01   1.829223e-03   4.036433e-03   49712
  2.008693e-01   9.504338e-01   1.840592e-03   4.105376e-03   53226
  2.072637e-01   9.757000e-01   1.853753e-03   4.072583e-03   57320
  2.136558e-01   1.041422e+00   1.831629e-03   4.258929e-03   60092
  2.200056e-01   1.091680e+00   1.839426e-03   4.300575e-03   63914
  2.263950e-01   1.135092e+00   1.849752e-03   4.338896e-03   68192
  2.327751e-01   1.188724e+00   1.833934e-03   4.454367e-03   71336
  2.391397e-01   1.247023e+00   1.845607e-03   4.551236e-03   75818
  2.455297e-01   1.312613e+00   1.844019e-03   4.660996e-03   79880
  2.518964e-01   1.366983e+00   1.834462e-03   4.716279e-03   83642
  2.582661e-01   1.441918e+00   1.840779e-03   4.864838e-03   88316
  2.646730e-01   1.486146e+00   1.859422e-03   4.915319e-03   93488
  2.710484e-01   1.545605e+00   1.827184e-03   4.990289e-03   96458
  2.773871e-01   1.624285e+00   1.829038e-03   5.088648e-03   101264
  2.837816e-01   1.681783e+00   1.862873e-03   5.129835e-03   107696
  2.901819e-01   1.749618e+00   1.837217e-03   5.236744e-03   111170
  2.965233e-01   1.816165e+00   1.822285e-03   5.386378e-03   115232
  3.028941e-01   1.892629e+00   1.855375e-03   5.451266e-03   122310
  3.093019e-01   1.950719e+00   1.843350e-03   5.476976e-03   126944
  3.156739e-01   2.039204e+00   1.828600e-03   5.642490e-03   131192
  3.220432e-01   2.099708e+00   1.844535e-03   5.705208e-03   137618
  3.284234e-01   2.174796e+00   1.836674e-03   5.778049e-03   142448
  3.347979e-01   2.264484e+00   1.844704e-03   5.843422e-03   148520
  3.411627e-01   2.321486e+00   1.831436e-03   5.914742e-03   153254
  3.475446e-01   2.411519e+00   1.852010e-03   6.021317e-03   160760
  3.539284e-01   2.483345e+00   1.835751e-03   6.109582e-03   165290
  3.603019e-01   2.577896e+00   1.840148e-03   6.225149e-03   171992
  3.666828e-01   2.652452e+00   1.840217e-03   6.289724e-03   177800
  3.730569e-01   2.733023e+00   1.843032e-03   6.337078e-03   184322
  3.794439e-01   2.834971e+00   1.841595e-03   6.475903e-03   190832
  3.858239e-01   2.912252e+00   1.839260e-03   6.579420e-03   196772
  3.921872e-01   2.997865e+00   1.836453e-03   6.661209e-03   202970
  3.985536e-01   3.106381e+00   1.839266e-03   6.789209e-03   210056
  4.049173e-01   3.189620e+00   1.832832e-03   6.898683e-03   216210
  4.112896e-01   3.294366e+00   1.841640e-03   6.959771e-03   224168
  4.176700e-01   3.381521e+00   1.840761e-03   7.034385e-03   230792
  4.240565e-01   3.492873e+00   1.846256e-03   7.144148e-03   238778
  4.304312e-01   3.568897e+00   1.831772e-03   7.201849e-03   243956
  4.367939e-01   3.670272e+00   1.845141e-03   7.326658e-03   252680
  4.431746e-01   3.769704e+00   1.842020e-03   7.364304e-03   260066
  4.495713e-01   3.905022e+00   1.849294e-03   7.530443e-03   268712
  4.559494e-01   3.997754e+00   1.834336e-03   7.618762e-03   274034
  4.623270e-01   4.111007e+00   1.847366e-03   7.715704e-03   283904
  4.687088e-01   4.201673e+00   1.837425e-03   7.777338e-03   290048
  4.750707e-01   4.312451e+00   1.836659e-03   7.871745e-03   297950
  4.814434e-01   4.433825e+00   1.842026e-03   7.961461e-03   306968
  4.878269e-01   4.533363e+00   1.843240e-03   8.081331e-03   315320
  4.942006e-01   4.642126e+00   1.835899e-03   8.161950e-03   322346
  5.005701e-01   4.774662e+00   1.842589e-03   8.316179e-03   331664
  5.069538e-01   4.876670e+00   1.844896e-03   8.342063e-03   340818
  5.133346e-01   4.992948e+00   1.837322e-03   8.467165e-03   348164
  5.197083e-01   5.135719e+00   1.843548e-03   8.563346e-03   357584
  5.260929e-01   5.237175e+00   1.846059e-03   8.639645e-03   367106
  5.324635e-01   5.379672e+00   1.832285e-03   8.819398e-03   373376
  5.388350e-01   5.510319e+00   1.848023e-03   8.896209e-03   385376
  5.452233e-01   5.619806e+00   1.842356e-03   8.929577e-03   393650
  5.516038e-01   5.728569e+00   1.840588e-03   8.983085e-03   402704
  5.579656e-01   5.864424e+00   1.830970e-03   9.149307e-03   409910
  5.643320e-01   6.007995e+00   1.843407e-03   9.256909e-03   422024
  5.707212e-01   6.146782e+00   1.846526e-03   9.375961e-03   432176
  5.771022e-01   6.242249e+00   1.837404e-03   9.404311e-03   440066
  5.834769e-01   6.383563e+00   1.841263e-03   9.545392e-03   450680
  5.898365e-01   6.528003e+00   1.831084e-03   9.641795e-03   457856
  5.962115e-01   6.679966e+00   1.848347e-03   9.730035e-03   472538
  6.026013e-01   6.828175e+00   1.839689e-03   9.855519e-03   480140
  6.089752e-01   6.937175e+00   1.841279e-03   9.899266e-03   490842
  6.153517e-01   7.070066e+00   1.838382e-03   9.969230e-03   500744
  6.217295e-01   7.230014e+00   1.842392e-03   1.014035e-02   511856
  6.281145e-01   7.384713e+00   1.844734e-03   1.021185e-02   523202
  6.344991e-01   7.519435e+00   1.840396e-03   1.029933e-02   532688
  6.408638e-01   7.649031e+00   1.834541e-03   1.044237e-02   541520
  6.472341e-01   7.798580e+00   1.842653e-03   1.047944e-02   555110
  6.536136e-01   7.928248e+00   1.839126e-03   1.053608e-02   564944
  6.599884e-01   8.106507e+00   1.839832e-03   1.069248e-02   576434
  6.663740e-01   8.274721e+00   1.844405e-03   1.080775e-02   588848
  6.727501e-01   8.431081e+00   1.838623e-03   1.091512e-02   597704
  6.791236e-01   8.547527e+00   1.842386e-03   1.091792e-02   610946
  6.855006e-01   8.709665e+00   1.837794e-03   1.104791e-02   620852
  6.918722e-01   8.844233e+00   1.841901e-03   1.110834e-02   633530
  6.982524e-01   9.039742e+00   1.841844e-03   1.122221e-02   645704
  7.046316e-01   9.178102e+00   1.840565e-03   1.133366e-02   656744
  7.110074e-01   9.327425e+00   1.841941e-03   1.139687e-02   669162
  7.173906e-01   9.503386e+00   1.843286e-03   1.150419e-02   681992
  7.237681e-01   9.649315e+00   1.838959e-03   1.158477e-02   692360
  7.301485e-01   9.819890e+00   1.844364e-03   1.169506e-02   707006
  7.365206e-01   9.966647e+00   1.834135e-03   1.178864e-02   714944
  7.428835e-01   1.012996e+01   1.841775e-03   1.184534e-02   730346
  7.492606e-01   1.031461e+01   1.838962e-03   1.200911e-02   742616
  7.556415e-01   1.047411e+01   1.843530e-03   1.204140e-02   756536
  7.620128e-01   1.063459e+01   1.836595e-03   1.211958e-02   766418
  7.683917e-01   1.079041e+01   1.845753e-03   1.221106e-02   783392
  7.747614e-01   1.096083e+01   1.833632e-03   1.233006e-02   790412
  7.811334e-01   1.112588e+01   1.848120e-03   1.233589e-02   810314
  7.875277e-01   1.131494e+01   1.843702e-03   1.249246e-02   821960
  7.938987e-01   1.150366e+01   1.834976e-03   1.264415e-02   831266
  8.002712e-01   1.165274e+01   1.843706e-03   1.265290e-02   848960
  8.066557e-01   1.179435e+01   1.842629e-03   1.272681e-02   861488
  8.130204e-01   1.198728e+01   1.833334e-03   1.283160e-02   871194
  8.193985e-01   1.215225e+01   1.847247e-03   1.287209e-02   891788
  8.257796e-01   1.233977e+01   1.838008e-03   1.296699e-02   900416
  8.321422e-01   1.253203e+01   1.836250e-03   1.310609e-02   914306
  8.385264e-01   1.271380e+01   1.847988e-03   1.315782e-02   933992
  8.449011e-01   1.284045e+01   1.834294e-03   1.324604e-02   940826
  8.512701e-01   1.304813e+01   1.842364e-03   1.333529e-02   960224
  8.576621e-01   1.321861e+01   1.846556e-03   1.336755e-02   976316
  8.640381e-01   1.341970e+01   1.835724e-03   1.353439e-02   985010
  8.704114e-01   1.355684e+01   1.843336e-03   1.351966e-02   1004024
  8.767898e-01   1.376255e+01   1.839706e-03   1.368092e-02   1016288
  8.831639e-01   1.394224e+01   1.840690e-03   1.372122e-02   1032290
  8.895470e-01   1.411357e+01   1.843156e-03   1.379248e-02   1048640
  8.959130e-01   1.429898e+01   1.831919e-03   1.389581e-02   1057250
  9.022937e-01   1.449010e+01   1.849588e-03   1.389641e-02   1083140
  9.086870e-01   1.468773e+01   1.840763e-03   1.405056e-02   1092248
  9.150555e-01   1.488653e+01   1.837510e-03   1.414414e-02   1105914
  9.214310e-01   1.503502e+01   1.841822e-03   1.418781e-02   1124744
  9.278120e-01   1.519832e+01   1.841202e-03   1.420696e-02   1139120
  9.341841e-01   1.542385e+01   1.838536e-03   1.430298e-02   1153490
  9.405650e-01   1.559140e+01   1.844187e-03   1.436025e-02   1172936
  9.469357e-01   1.577862e+01   1.834491e-03   1.452419e-02   1182158
  9.533110e-01   1.594304e+01   1.846126e-03   1.449409e-02   1206392
  9.596894e-01   1.612007e+01   1.835525e-03   1.460159e-02   1215224
  9.660641e-01   1.633673e+01   1.844936e-03   1.470008e-02   1237874
  9.724505e-01   1.651145e+01   1.841050e-03   1.474649e-02   1251800
  9.788233e-01   1.666351e+01   1.838619e-03   1.480898e-02   1265792
  9.851993e-01   1.690952e+01   1.843109e-03   1.492023e-02   1286306
  9.915793e-01   1.708921e+01   1.838809e-03   1.500999e-02   1299764
  9.979438e-01   1.725573e+01   1.836769e-03   1.506056e-02   1314554
  1.004319e+00   1.743498e+01   1.843595e-03   1.507090e-02   1337288
  1.010703e+00   1.759713e+01   1.840912e-03   1.513437e-02   1351304
  1.017077e+00   1.781294e+01   1.841769e-03   1.522927e-02   1369026
  1.023461e+00   1.797373e+01   1.843478e-03   1.524578e-02   1388456
  1.029842e+00   1.818646e+01   1.840406e-03   1.538909e-02   1402700
  1.036211e+00   1.834719e+01   1.837802e-03   1.539924e-02   1418282
  1.042587e+00   1.851554e+01   1.843596e-03   1.543399e-02   1440272
  1.048964e+00   1.867674e+01   1.838705e-03   1.550818e-02   1454114
  1.055341e+00   1.896212e+01   1.842603e-03   1.561878e-02   1475480
  1.061720e+00   1.910524e+01   1.840520e-03   1.562796e-02   1490936
  1.068091e+00   1.928788e+01   1.838519e-03   1.571060e-02   1507826
  1.074472e+00   1.948505e+01   1.844275e-03   1.574122e-02   1530764
  1.080850e+00   1.964869e+01   1.839052e-03   1.579362e-02   1543424
  1.087222e+00   1.981685e+01   1.841688e-03   1.586176e-02   1564946
  1.093594e+00   2.003082e+01   1.835875e-03   1.595879e-02   1578536
  1.099970e+00   2.020096e+01   1.845670e-03   1.595614e-02   1604882
  1.106358e+00   2.038907e+01   1.842454e-03   1.601473e-02   1621304
  1.112736e+00   2.060672e+01   1.839545e-03   1.611460e-02   1637024
  1.119103e+00   2.072229e+01   1.837794e-03   1.612471e-02   1654134
  1.125480e+00   2.092048e+01   1.844256e-03   1.613746e-02   1679168
  1.131864e+00   2.114355e+01   1.841903e-03   1.623019e-02   1695944
  1.138235e+00   2.132264e+01   1.836568e-03   1.628837e-02   1710602
  1.144612e+00   2.148812e+01   1.844777e-03   1.630662e-02   1737056
  1.150994e+00   2.171228e+01   1.840390e-03   1.638850e-02   1752602
  1.157370e+00   2.187690e+01   1.839227e-03   1.645128e-02   1772024
  1.163752e+00   2.205360e+01   1.844090e-03   1.646902e-02   1795364
  1.170126e+00   2.222973e+01   1.836467e-03   1.651504e-02   1807634
  1.176490e+00   2.239249e+01   1.836183e-03   1.656799e-02   1827608
  1.182859e+00   2.259840e+01   1.840789e-03   1.659044e-02   1850984
  1.189240e+00   2.274608e+01   1.844107e-03   1.661381e-02   1874618
  1.195619e+00   2.294506e+01   1.838445e-03   1.670728e-02   1889504
  1.202001e+00   2.311436e+01   1.845373e-03   1.670564e-02   1916870
  1.208383e+00   2.333146e+01   1.838254e-03   1.680527e-02   1929728
  1.214760e+00   2.347924e+01   1.843674e-03   1.678299e-02   1955408
  1.221131e+00   2.364409e+01   1.834427e-03   1.685489e-02   1966842
  1.227503e+00   2.383203e+01   1.843005e-03   1.689518e-02   1996640
  1.233886e+00   2.405369e+01   1.842690e-03   1.695446e-02   2016392
  1.240265e+00   2.420028e+01   1.839730e-03   1.696522e-02   2034722
  1.246641e+00   2.434390e+01   1.840813e-03   1.696993e-02   2056460
  1.253014e+00   2.456482e+01   1.838931e-03   1.704299e-02   2075186
  1.259388e+00   2.469861e+01   1.840566e-03   1.704933e-02   2099096
  1.265761e+00   2.489108e+01   1.837910e-03   1.710637e-02   2116832
  1.272138e+00   2.507491e+01   1.844119e-03   1.713751e-02   2145146
  1.278526e+00   2.520784e+01   1.844128e-03   1.711783e-02   2166776
  1.284904e+00   2.536701e+01   1.838822e-03   1.717068e-02   2181848
  1.291273e+00   2.555945e+01   1.838785e-03   1.722451e-02   2203766
  1.297646e+00   2.572719e+01   1.840619e-03   1.725880e-02   2227664
  1.304025e+00   2.592172e+01   1.842381e-03   1.729188e-02   2252138
  1.310403e+00   2.610877e+01   1.839825e-03   1.731963e-02   2271152
  1.316777e+00   2.625711e+01   1.840536e-03   1.734283e-02   2293256
  1.323154e+00   2.640258e+01   1.842085e-03   1.731881e-02   2318130
  1.329536e+00   2.654578e+01   1.841956e-03   1.734285e-02   2340824
  1.335910e+00   2.675897e+01   1.838342e-03   1.743132e-02   2357990
  1.342292e+00   2.690806e+01   1.846396e-03   1.737414e-02   2391176
  1.348671e+00   2.707022e+01   1.837209e-03   1.748713e-02   2401808
  1.355040e+00   2.718258e+01   1.840258e-03   1.742489e-02   2428442
  1.361418e+00   2.739488e+01   1.842645e-03   1.749479e-02   2454752
  1.367798e+00   2.750872e+01   1.841270e-03   1.747329e-02   2475872
  1.374172e+00   2.772725e+01   1.838763e-03   1.756239e-02   2495822
  1.380543e+00   2.785881e+01   1.839940e-03   1.753259e-02   2520248
  1.386922e+00   2.800568e+01   1.844043e-03   1.756504e-02   2549186
  1.393299e+00   2.815653e+01   1.837661e-03   1.757603e-02   2564768
  1.399672e+00   2.830079e+01   1.841284e-03   1.752777e-02   2592968
  1.406054e+00   2.845732e+01   1.843378e-03   1.758803e-02   2619818
  1.412431e+00   2.864349e+01   1.838027e-03   1.761658e-02   2636384
  1.418803e+00   2.882843e+01   1.840293e-03   1.766770e-02   2662220
  1.425180e+00   2.890632e+01   1.842524e-03   1.762026e-02   2689770
  1.431560e+00   2.912768e+01   1.840994e-03   1.768707e-02   2712296
  1.437933e+00   2.923060e+01   1.838431e-03   1.770300e-02   2732618
  1.444312e+00   2.935442e+01   1.843932e-03   1.766176e-02   2765264
  1.450695e+00   2.954737e+01   1.840894e-03   1.771180e-02   2784824
  1.457066e+00   2.969493e+01   1.837138e-03   1.773151e-02   2804162
  1.463445e+00   2.977674e+01   1.844971e-03   1.766733e-02   2840612
  1.469825e+00   2.994548e+01   1.839130e-03   1.773148e-02   2855576
  1.476198e+00   3.006443e+01   1.840533e-03   1.769275e-02   2883458
  1.482571e+00   3.023387e+01   1.838217e-03   1.773018e-02   2904128
  1.488946e+00   3.039496e+01   1.843378e-03   1.773522e-02   2937026
  1.495325e+00   3.049651e+01   1.839218e-03   1.774489e-02   2956976
  1.501703e+00   3.066343e+01   1.841967e-03   1.773399e-02   2986472
  1.508082e+00   3.082104e+01   1.840166e-03   1.777973e-02   3008918
  1.514460e+00   3.088287e+01   1.841773e-03   1.773038e-02   3036752
  1.520836e+00   3.111301e+01   1.839884e-03   1.777579e-02   3058376
  1.527209e+00   3.120373e+01   1.839616e-03   1.779077e-02   3084210
  1.533583e+00   3.135357e+01   1.840948e-03   1.778941e-02   3111848
  1.539960e+00   3.145875e+01   1.841348e-03   1.776960e-02   3138890
  1.546339e+00   3.165986e+01   1.840626e-03   1.780524e-02   3164516
  1.552719e+00   3.171643e+01   1.842638e-03   1.776207e-02   3192656
  1.559097e+00   3.185882e+01   1.840555e-03   1.777543e-02   3215618
  1.565473e+00   3.200830e+01   1.840732e-03   1.776724e-02   3242888
  1.571846e+00   3.212691e+01   1.839114e-03   1.778709e-02   3265448
  1.578224e+00   3.223137e+01   1.843575e-03   1.773641e-02   3300842
  1.584604e+00   3.235956e+01   1.839884e-03   1.777163e-02   3321008
  1.590977e+00   3.249494e+01   1.839336e-03   1.775660e-02   3346406
  1.597352e+00   3.258244e+01   1.841596e-03   1.770500e-02   3377984
  1.603728e+00   3.270747e+01   1.839551e-03   1.775091e-02   3400352
  1.610103e+00   3.282829e+01   1.841321e-03   1.772443e-02   3431450
  1.616483e+00   3.294178e+01   1.841519e-03   1.769831e-02   3458768
  1.622859e+00   3.307437e+01   1.841183e-03   1.773050e-02   3484088
  1.629231e+00   3.314359e+01   1.838425e-03   1.770094e-02   3508218
  1.635610e+00   3.333335e+01   1.843946e-03   1.770792e-02   3545924
  1.641992e+00   3.337654e+01   1.841053e-03   1.767083e-02   3567530
  1.648369e+00   3.352912e+01   1.840183e-03   1.769573e-02   3595040
  1.654744e+00   3.357031e+01   1.840167e-03   1.762610e-02   3621176
  1.661115e+00   3.371251e+01   1.839521e-03   1.764239e-02   3647738
  1.667490e+00   3.381536e+01   1.841438e-03   1.761506e-02   3680480
  1.673870e+00   3.392462e+01   1.842082e-03   1.760877e-02   3709712
  1.680248e+00   3.404520e+01   1.840008e-03   1.761900e-02   3734702
  1.686623e+00   3.416500e+01   1.840362e-03   1.763065e-02   3762776
  1.692996e+00   3.424620e+01   1.839854e-03   1.759599e-02   3790514
  1.699371e+00   3.436900e+01   1.839908e-03   1.758640e-02   3820352
  1.705752e+00   3.441040e+01   1.844068e-03   1.752481e-02   3856016
  1.712131e+00   3.459591e+01   1.839690e-03   1.754994e-02   3876818
  1.718506e+00   3.464677e+01   1.839874e-03   1.752922e-02   3906332
  1.724882e+00   3.474004e+01   1.841963e-03   1.752792e-02   3938216
  1.731260e+00   3.482205e+01   1.840685e-03   1.748855e-02   3966354
  1.737636e+00   3.496215e+01   1.839695e-03   1.750231e-02   3993536
  1.744011e+00   3.505275e+01   1.840344e-03   1.749763e-02   4024034
  1.750392e+00   3.508398e+01   1.843071e-03   1.742114e-02   4060208
  1.756773e+00   3.523790e+01   1.840812e-03   1.743842e-02   4083632
  1.763145e+00   3.530970e+01   1.837811e-03   1.741670e-02   4107062
  1.769521e+00   3.536720e+01   1.842771e-03   1.735297e-02   4148072
  1.775893e+00   3.551370e+01   1.836707e-03   1.742021e-02   4163456
  1.782267e+00   3.555620e+01   1.842476e-03   1.734067e-02   4207994
  1.788652e+00   3.564882e+01   1.843367e-03   1.731778e-02   4239152
  1.795029e+00   3.576661e+01   1.839132e-03   1.731089e-02   4259426
  1.801407e+00   3.580407e+01   1.842524e-03   1.727848e-02   4299488
  1.807788e+00   3.587269e+01   1.840660e-03   1.724073e-02   4323692
  1.814162e+00   3.598264e+01   1.840093e-03   1.725847e-02   4353242
  1.820541e+00   3.608057e+01   1.841694e-03   1.721461e-02   4388792
