# power spectrum of zeta (dimensionless)
# redshift z=-0.013098
# k              Pk             sigma(k)       sigma(Pk)      count
  5.011399e-03   1.886049e-18   7.667927e-04   3.672246e-19   18
  1.037418e-02   5.283639e-17   1.725047e-03   6.092754e-18   128
  1.616528e-02   2.344049e-16   1.646572e-03   1.323669e-17   314
  2.269071e-02   5.621117e-16   1.954354e-03   2.183937e-17   728
  2.897169e-02   1.069930e-15   1.717946e-03   3.592555e-17   1016
  3.518826e-02   1.482242e-15   1.880676e-03   3.672350e-17   1682
  4.169479e-02   2.208112e-15   1.831736e-03   4.610183e-17   2300
  4.790974e-02   2.805535e-15   1.770731e-03   5.262825e-17   2906
  5.429022e-02   3.719855e-15   1.892687e-03   6.087557e-17   4040
  6.068098e-02   4.809107e-15   1.775551e-03   7.211284e-17   4712
  6.698900e-02   6.048413e-15   1.857705e-03   7.845944e-17   6002
  7.346135e-02   7.111029e-15   1.857594e-03   8.504672e-17   7256
  7.977379e-02   8.421317e-15   1.772571e-03   9.577179e-17   8120
  8.609019e-02   9.137565e-15   1.864951e-03   9.179951e-17   9950
  9.253636e-02   1.003871e-14   1.853578e-03   9.286975e-17   11384
  9.885187e-02   1.062938e-14   1.809244e-03   9.613514e-17   12666
  1.052712e-01   1.171969e-14   1.889168e-03   9.444278e-17   15104
  1.117654e-01   1.276116e-14   1.850532e-03   1.000436e-16   16616
  1.180754e-01   1.435642e-14   1.799489e-03   1.073343e-16   18026
  1.244216e-01   1.556977e-14   1.853405e-03   1.070986e-16   20696
  1.308065e-01   1.673287e-14   1.827918e-03   1.125542e-16   22436
  1.371558e-01   1.809072e-14   1.845873e-03   1.143339e-16   24962
  1.435394e-01   1.898543e-14   1.831283e-03   1.141339e-16   27176
  1.499133e-01   1.941231e-14   1.847268e-03   1.126462e-16   29810
  1.562775e-01   2.017916e-14   1.828450e-03   1.134767e-16   32120
  1.626776e-01   2.095695e-14   1.865216e-03   1.121096e-16   35432
  1.690383e-01   2.204172e-14   1.814577e-03   1.132359e-16   37238
  1.754019e-01   2.303546e-14   1.856016e-03   1.139430e-16   41072
  1.817869e-01   2.399790e-14   1.834293e-03   1.157892e-16   43472
  1.881565e-01   2.517874e-14   1.848176e-03   1.171579e-16   47042
  1.945298e-01   2.647380e-14   1.829223e-03   1.200706e-16   49712
  2.008693e-01   2.737456e-14   1.840592e-03   1.187529e-16   53226
  2.072637e-01   2.734176e-14   1.853753e-03   1.141494e-16   57320
  2.136558e-01   2.819470e-14   1.831629e-03   1.153462e-16   60092
  2.200056e-01   2.883727e-14   1.839426e-03   1.141753e-16   63914
  2.263950e-01   2.913775e-14   1.849752e-03   1.115972e-16   68192
  2.327751e-01   2.987375e-14   1.833934e-03   1.112341e-16   71336
  2.391397e-01   3.058383e-14   1.845607e-03   1.112860e-16   75818
  2.455297e-01   3.137848e-14   1.844019e-03   1.112941e-16   79880
  2.518964e-01   3.192611e-14   1.834462e-03   1.101968e-16   83642
  2.582661e-01   3.299095e-14   1.840779e-03   1.112843e-16   88316
  2.646730e-01   3.329386e-14   1.859422e-03   1.094410e-16   93488
  2.710484e-01   3.363538e-14   1.827184e-03   1.090986e-16   96458
  2.773871e-01   3.409719e-14   1.829038e-03   1.076375e-16   101264
  2.837816e-01   3.434607e-14   1.862873e-03   1.049368e-16   107696
  2.901819e-01   3.472362e-14   1.837217e-03   1.045885e-16   111170
  2.965233e-01   3.517810e-14   1.822285e-03   1.043510e-16   115232
  3.028941e-01   3.556253e-14   1.855375e-03   1.017316e-16   122310
  3.093019e-01   3.554777e-14   1.843350e-03   9.979917e-17   126944
  3.156739e-01   3.628900e-14   1.828600e-03   1.002990e-16   131192
  3.220432e-01   3.622242e-14   1.844535e-03   9.869108e-17   137618
  3.284234e-01   3.669874e-14   1.836674e-03   9.756502e-17   142448
  3.347979e-01   3.701840e-14   1.844704e-03   9.508775e-17   148520
  3.411627e-01   3.708085e-14   1.831436e-03   9.442745e-17   153254
  3.475446e-01   3.728847e-14   1.852010e-03   9.335094e-17   160760
  3.539284e-01   3.724667e-14   1.835751e-03   9.151086e-17   165290
  3.603019e-01   3.769673e-14   1.840148e-03   9.080744e-17   171992
  3.666828e-01   3.762709e-14   1.840217e-03   8.938264e-17   177800
  3.730569e-01   3.773974e-14   1.843032e-03   8.782630e-17   184322
  3.794439e-01   3.817331e-14   1.841595e-03   8.756022e-17   190832
  3.858239e-01   3.798346e-14   1.839260e-03   8.566083e-17   196772
  3.921872e-01   3.829478e-14   1.836453e-03   8.515762e-17   202970
  3.985536e-01   3.836545e-14   1.839266e-03   8.375376e-17   210056
  4.049173e-01   3.811685e-14   1.832832e-03   8.220576e-17   216210
  4.112896e-01   3.827542e-14   1.841640e-03   8.107297e-17   224168
  4.176700e-01   3.829413e-14   1.840761e-03   7.950553e-17   230792
  4.240565e-01   3.843160e-14   1.846256e-03   7.867003e-17   238778
  4.304312e-01   3.835278e-14   1.831772e-03   7.742525e-17   243956
  4.367939e-01   3.826696e-14   1.845141e-03   7.623118e-17   252680
  4.431746e-01   3.816945e-14   1.842020e-03   7.518381e-17   260066
  4.495713e-01   3.834064e-14   1.849294e-03   7.388707e-17   268712
  4.559494e-01   3.825470e-14   1.834336e-03   7.287801e-17   274034
  4.623270e-01   3.819528e-14   1.847366e-03   7.157669e-17   283904
  4.687088e-01   3.818528e-14   1.837425e-03   7.059686e-17   290048
  4.750707e-01   3.807305e-14   1.836659e-03   6.946864e-17   297950
  4.814434e-01   3.801563e-14   1.842026e-03   6.851066e-17   306968
  4.878269e-01   3.806182e-14   1.843240e-03   6.814978e-17   315320
  4.942006e-01   3.767902e-14   1.835899e-03   6.630705e-17   322346
  5.005701e-01   3.769048e-14   1.842589e-03   6.537304e-17   331664
  5.069538e-01   3.764312e-14   1.844896e-03   6.454495e-17   340818
  5.133346e-01   3.767414e-14   1.837322e-03   6.383658e-17   348164
  5.197083e-01   3.744847e-14   1.843548e-03   6.248782e-17   357584
  5.260929e-01   3.728578e-14   1.846059e-03   6.128183e-17   367106
  5.324635e-01   3.728142e-14   1.832285e-03   6.104429e-17   373376
  5.388350e-01   3.725763e-14   1.848023e-03   5.996667e-17   385376
  5.452233e-01   3.698524e-14   1.842356e-03   5.910308e-17   393650
  5.516038e-01   3.676365e-14   1.840588e-03   5.788219e-17   402704
  5.579656e-01   3.675936e-14   1.830970e-03   5.741951e-17   409910
  5.643320e-01   3.660669e-14   1.843407e-03   5.638821e-17   422024
  5.707212e-01   3.645876e-14   1.846526e-03   5.551971e-17   432176
  5.771022e-01   3.625116e-14   1.837404e-03   5.475739e-17   440066
  5.834769e-01   3.602010e-14   1.841263e-03   5.368051e-17   450680
  5.898365e-01   3.612243e-14   1.831084e-03   5.328437e-17   457856
  5.962115e-01   3.594168e-14   1.848347e-03   5.224350e-17   472538
  6.026013e-01   3.588786e-14   1.839689e-03   5.179920e-17   480140
  6.089752e-01   3.558072e-14   1.841279e-03   5.091737e-17   490842
  6.153517e-01   3.542856e-14   1.838382e-03   5.011037e-17   500744
  6.217295e-01   3.528030e-14   1.842392e-03   4.925627e-17   511856
  6.281145e-01   3.512832e-14   1.844734e-03   4.861894e-17   523202
  6.344991e-01   3.508640e-14   1.840396e-03   4.808884e-17   532688
  6.408638e-01   3.488748e-14   1.834541e-03   4.732333e-17   541520
  6.472341e-01   3.470221e-14   1.842653e-03   4.657818e-17   555110
  6.536136e-01   3.459790e-14   1.839126e-03   4.599863e-17   564944
  6.599884e-01   3.445366e-14   1.839832e-03   4.537646e-17   576434
  6.663740e-01   3.420327e-14   1.844405e-03   4.466150e-17   588848
  6.727501e-01   3.409446e-14   1.838623e-03   4.402063e-17   597704
  6.791236e-01   3.394158e-14   1.842386e-03   4.339879e-17   610946
  6.855006e-01   3.387064e-14   1.837794e-03   4.290400e-17   620852
  6.918722e-01   3.369325e-14   1.841901e-03   4.242508e-17   633530
  6.982524e-01   3.355976e-14   1.841844e-03   4.173744e-17   645704
  7.046316e-01   3.327527e-14   1.840565e-03   4.110090e-17   656744
  7.110074e-01   3.317925e-14   1.841941e-03   4.059615e-17   669162
  7.173906e-01   3.303962e-14   1.843286e-03   3.995922e-17   681992
  7.237681e-01   3.279199e-14   1.838959e-03   3.955089e-17   692360
  7.301485e-01   3.263444e-14   1.844364e-03   3.889038e-17   707006
  7.365206e-01   3.233770e-14   1.834135e-03   3.832297e-17   714944
  7.428835e-01   3.247187e-14   1.841775e-03   3.795095e-17   730346
  7.492606e-01   3.213146e-14   1.838962e-03   3.730211e-17   742616
  7.556415e-01   3.204649e-14   1.843530e-03   3.686514e-17   756536
  7.620128e-01   3.191272e-14   1.836595e-03   3.646973e-17   766418
  7.683917e-01   3.176094e-14   1.845753e-03   3.590361e-17   783392
  7.747614e-01   3.159233e-14   1.833632e-03   3.557376e-17   790412
  7.811334e-01   3.139907e-14   1.848120e-03   3.489723e-17   810314
  7.875277e-01   3.129700e-14   1.843702e-03   3.457026e-17   821960
  7.938987e-01   3.109171e-14   1.834976e-03   3.415623e-17   831266
  8.002712e-01   3.094181e-14   1.843706e-03   3.355582e-17   848960
  8.066557e-01   3.071568e-14   1.842629e-03   3.306043e-17   861488
  8.130204e-01   3.053667e-14   1.833334e-03   3.274493e-17   871194
  8.193985e-01   3.038767e-14   1.847247e-03   3.214155e-17   891788
  8.257796e-01   3.029882e-14   1.838008e-03   3.190816e-17   900416
  8.321422e-01   3.020427e-14   1.836250e-03   3.168450e-17   914306
  8.385264e-01   3.004757e-14   1.847988e-03   3.111219e-17   933992
  8.449011e-01   2.977163e-14   1.834294e-03   3.070727e-17   940826
  8.512701e-01   2.959672e-14   1.842364e-03   3.019673e-17   960224
  8.576621e-01   2.952558e-14   1.846556e-03   2.992036e-17   976316
  8.640381e-01   2.933737e-14   1.835724e-03   2.960974e-17   985010
  8.704114e-01   2.913403e-14   1.843336e-03   2.909760e-17   1004024
  8.767898e-01   2.897071e-14   1.839706e-03   2.878723e-17   1016288
  8.831639e-01   2.888575e-14   1.840690e-03   2.843487e-17   1032290
  8.895470e-01   2.867722e-14   1.843156e-03   2.800441e-17   1048640
  8.959130e-01   2.857814e-14   1.831919e-03   2.781060e-17   1057250
  9.022937e-01   2.841460e-14   1.849588e-03   2.723118e-17   1083140
  9.086870e-01   2.819640e-14   1.840763e-03   2.699062e-17   1092248
  9.150555e-01   2.803193e-14   1.837510e-03   2.671315e-17   1105914
  9.214310e-01   2.788170e-14   1.841822e-03   2.629097e-17   1124744
  9.278120e-01   2.771840e-14   1.841202e-03   2.596020e-17   1139120
  9.341841e-01   2.760189e-14   1.838536e-03   2.568872e-17   1153490
  9.405650e-01   2.735095e-14   1.844187e-03   2.525495e-17   1172936
  9.469357e-01   2.720536e-14   1.834491e-03   2.503601e-17   1182158
  9.533110e-01   2.707085e-14   1.846126e-03   2.462999e-17   1206392
  9.596894e-01   2.690084e-14   1.835525e-03   2.438552e-17   1215224
  9.660641e-01   2.675136e-14   1.844936e-03   2.405677e-17   1237874
  9.724505e-01   2.659000e-14   1.841050e-03   2.373796e-17   1251800
  9.788233e-01   2.641511e-14   1.838619e-03   2.355777e-17   1265792
  9.851993e-01   2.629088e-14   1.843109e-03   2.319688e-17   1286306
  9.915793e-01   2.612701e-14   1.838809e-03   2.294412e-17   1299764
  9.979438e-01   2.587200e-14   1.836769e-03   2.260898e-17   1314554
  1.004319e+00   2.575127e-14   1.843595e-03   2.227172e-17   1337288
  1.010703e+00   2.560462e-14   1.840912e-03   2.202134e-17   1351304
  1.017077e+00   2.548333e-14   1.841769e-03   2.179136e-17   1369026
  1.023461e+00   2.528675e-14   1.843478e-03   2.146204e-17   1388456
  1.029842e+00   2.519171e-14   1.840406e-03   2.128212e-17   1402700
  1.036211e+00   2.497645e-14   1.837802e-03   2.098636e-17   1418282
  1.042587e+00   2.483459e-14   1.843596e-03   2.071177e-17   1440272
  1.048964e+00   2.464546e-14   1.838705e-03   2.043612e-17   1454114
  1.055341e+00   2.452849e-14   1.842603e-03   2.022374e-17   1475480
  1.061720e+00   2.433905e-14   1.840520e-03   1.995294e-17   1490936
  1.068091e+00   2.424749e-14   1.838519e-03   1.974942e-17   1507826
  1.074472e+00   2.411465e-14   1.844275e-03   1.954254e-17   1530764
  1.080850e+00   2.391216e-14   1.839052e-03   1.925892e-17   1543424
  1.087222e+00   2.373680e-14   1.841688e-03   1.900967e-17   1564946
  1.093594e+00   2.361506e-14   1.835875e-03   1.881548e-17   1578536
  1.099970e+00   2.345653e-14   1.845670e-03   1.849465e-17   1604882
  1.106358e+00   2.325832e-14   1.842454e-03   1.829172e-17   1621304
  1.112736e+00   2.313771e-14   1.839545e-03   1.807387e-17   1637024
  1.119103e+00   2.297523e-14   1.837794e-03   1.787189e-17   1654134
  1.125480e+00   2.281903e-14   1.844256e-03   1.760380e-17   1679168
  1.131864e+00   2.272318e-14   1.841903e-03   1.744916e-17   1695944
  1.138235e+00   2.253990e-14   1.836568e-03   1.720858e-17   1710602
  1.144612e+00   2.240396e-14   1.844777e-03   1.701131e-17   1737056
  1.150994e+00   2.228948e-14   1.840390e-03   1.681604e-17   1752602
  1.157370e+00   2.211153e-14   1.839227e-03   1.662964e-17   1772024
  1.163752e+00   2.193950e-14   1.844090e-03   1.640291e-17   1795364
  1.170126e+00   2.179040e-14   1.836467e-03   1.618135e-17   1807634
  1.176490e+00   2.164937e-14   1.836183e-03   1.604756e-17   1827608
  1.182859e+00   2.150133e-14   1.840789e-03   1.579234e-17   1850984
  1.189240e+00   2.138330e-14   1.844107e-03   1.562031e-17   1874618
  1.195619e+00   2.122439e-14   1.838445e-03   1.545504e-17   1889504
  1.202001e+00   2.102996e-14   1.845373e-03   1.519944e-17   1916870
  1.208383e+00   2.093491e-14   1.838254e-03   1.508676e-17   1929728
  1.214760e+00   2.078399e-14   1.843674e-03   1.488685e-17   1955408
  1.221131e+00   2.060854e-14   1.834427e-03   1.471196e-17   1966842
  1.227503e+00   2.050011e-14   1.843005e-03   1.452190e-17   1996640
  1.233886e+00   2.034160e-14   1.842690e-03   1.434171e-17   2016392
  1.240265e+00   2.022652e-14   1.839730e-03   1.417800e-17   2034722
  1.246641e+00   2.006241e-14   1.840813e-03   1.401140e-17   2056460
  1.253014e+00   1.995663e-14   1.838931e-03   1.386174e-17   2075186
  1.259388e+00   1.978766e-14   1.840566e-03   1.366695e-17   2099096
  1.265761e+00   1.962817e-14   1.837910e-03   1.348731e-17   2116832
  1.272138e+00   1.950957e-14   1.844119e-03   1.331655e-17   2145146
  1.278526e+00   1.938265e-14   1.844128e-03   1.316486e-17   2166776
  1.284904e+00   1.924572e-14   1.838822e-03   1.304604e-17   2181848
  1.291273e+00   1.909870e-14   1.838785e-03   1.288927e-17   2203766
  1.297646e+00   1.895327e-14   1.840619e-03   1.271535e-17   2227664
  1.304025e+00   1.880617e-14   1.842381e-03   1.253993e-17   2252138
  1.310403e+00   1.871712e-14   1.839825e-03   1.242451e-17   2271152
  1.316777e+00   1.859314e-14   1.840536e-03   1.229079e-17   2293256
  1.323154e+00   1.842425e-14   1.842085e-03   1.212291e-17   2318130
  1.329536e+00   1.826927e-14   1.841956e-03   1.194587e-17   2340824
  1.335910e+00   1.815087e-14   1.838342e-03   1.184005e-17   2357990
  1.342292e+00   1.801562e-14   1.846396e-03   1.165964e-17   2391176
  1.348671e+00   1.787936e-14   1.837209e-03   1.155017e-17   2401808
  1.355040e+00   1.774672e-14   1.840258e-03   1.138282e-17   2428442
  1.361418e+00   1.765289e-14   1.842645e-03   1.126467e-17   2454752
  1.367798e+00   1.751239e-14   1.841270e-03   1.115304e-17   2475872
  1.374172e+00   1.739811e-14   1.838763e-03   1.100999e-17   2495822
  1.380543e+00   1.725030e-14   1.839940e-03   1.087922e-17   2520248
  1.386922e+00   1.714966e-14   1.844043e-03   1.075528e-17   2549186
  1.393299e+00   1.699460e-14   1.837661e-03   1.062762e-17   2564768
  1.399672e+00   1.688634e-14   1.841284e-03   1.049711e-17   2592968
  1.406054e+00   1.675033e-14   1.843378e-03   1.037197e-17   2619818
  1.412431e+00   1.663957e-14   1.838027e-03   1.026206e-17   2636384
  1.418803e+00   1.649772e-14   1.840293e-03   1.013646e-17   2662220
  1.425180e+00   1.638136e-14   1.842524e-03   1.000630e-17   2689770
  1.431560e+00   1.626438e-14   1.840994e-03   9.884505e-18   2712296
  1.437933e+00   1.612971e-14   1.838431e-03   9.772213e-18   2732618
  1.444312e+00   1.601011e-14   1.843932e-03   9.640950e-18   2765264
  1.450695e+00   1.589700e-14   1.840894e-03   9.547295e-18   2784824
  1.457066e+00   1.577722e-14   1.837138e-03   9.424265e-18   2804162
  1.463445e+00   1.566649e-14   1.844971e-03   9.310519e-18   2840612
  1.469825e+00   1.554516e-14   1.839130e-03   9.216407e-18   2855576
  1.476198e+00   1.543002e-14   1.840533e-03   9.093671e-18   2883458
  1.482571e+00   1.530341e-14   1.838217e-03   8.999862e-18   2904128
  1.488946e+00   1.516914e-14   1.843378e-03   8.865194e-18   2937026
  1.495325e+00   1.507983e-14   1.839218e-03   8.788622e-18   2956976
  1.501703e+00   1.496342e-14   1.841967e-03   8.681619e-18   2986472
  1.508082e+00   1.484503e-14   1.840166e-03   8.575149e-18   3008918
  1.514460e+00   1.471444e-14   1.841773e-03   8.450959e-18   3036752
  1.520836e+00   1.462361e-14   1.839884e-03   8.364304e-18   3058376
  1.527209e+00   1.451646e-14   1.839616e-03   8.275295e-18   3084210
  1.533583e+00   1.439422e-14   1.840948e-03   8.172164e-18   3111848
  1.539960e+00   1.427572e-14   1.841348e-03   8.058658e-18   3138890
  1.546339e+00   1.418995e-14   1.840626e-03   7.969238e-18   3164516
  1.552719e+00   1.405778e-14   1.842638e-03   7.881800e-18   3192656
  1.559097e+00   1.396032e-14   1.840555e-03   7.794044e-18   3215618
  1.565473e+00   1.386800e-14   1.840732e-03   7.711966e-18   3242888
  1.571846e+00   1.373471e-14   1.839114e-03   7.616609e-18   3265448
  1.578224e+00   1.360913e-14   1.843575e-03   7.498549e-18   3300842
  1.584604e+00   1.352808e-14   1.839884e-03   7.438859e-18   3321008
  1.590977e+00   1.340882e-14   1.839336e-03   7.338862e-18   3346406
  1.597352e+00   1.329527e-14   1.841596e-03   7.241671e-18   3377984
  1.603728e+00   1.320483e-14   1.839551e-03   7.181519e-18   3400352
  1.610103e+00   1.310795e-14   1.841321e-03   7.088400e-18   3431450
  1.616483e+00   1.299967e-14   1.841519e-03   6.998709e-18   3458768
  1.622859e+00   1.292044e-14   1.841183e-03   6.932175e-18   3484088
  1.629231e+00   1.279590e-14   1.838425e-03   6.843905e-18   3508218
  1.635610e+00   1.270322e-14   1.843946e-03   6.766538e-18   3545924
  1.641992e+00   1.260109e-14   1.841053e-03   6.687845e-18   3567530
  1.648369e+00   1.249893e-14   1.840183e-03   6.601176e-18   3595040
  1.654744e+00   1.237396e-14   1.840167e-03   6.513354e-18   3621176
  1.661115e+00   1.230571e-14   1.839521e-03   6.457774e-18   3647738
  1.667490e+00   1.219718e-14   1.841438e-03   6.369681e-18   3680480
  1.673870e+00   1.210220e-14   1.842082e-03   6.292071e-18   3709712
  1.680248e+00   1.200897e-14   1.840008e-03   6.226016e-18   3734702
  1.686623e+00   1.193487e-14   1.840362e-03   6.158144e-18   3762776
  1.692996e+00   1.182773e-14   1.839854e-03   6.084993e-18   3790514
  1.699371e+00   1.173047e-14   1.839908e-03   6.013293e-18   3820352
  1.705752e+00   1.163456e-14   1.844068e-03   5.938789e-18   3856016
  1.712131e+00   1.154671e-14   1.839690e-03   5.878719e-18   3876818
  1.718506e+00   1.145350e-14   1.839874e-03   5.806878e-18   3906332
  1.724882e+00   1.136080e-14   1.841963e-03   5.741988e-18   3938216
  1.731260e+00   1.125829e-14   1.840685e-03   5.666417e-18   3966354
  1.737636e+00   1.117806e-14   1.839695e-03   5.607970e-18   3993536
  1.744011e+00   1.109072e-14   1.840344e-03   5.548353e-18   4024034
  1.750392e+00   1.101031e-14   1.843071e-03   5.478416e-18   4060208
  1.756773e+00   1.090698e-14   1.840812e-03   5.405728e-18   4083632
  1.763145e+00   1.083818e-14   1.837811e-03   5.343856e-18   4107062
  1.769521e+00   1.073509e-14   1.842771e-03   5.286738e-18   4148072
  1.775893e+00   1.065792e-14   1.836707e-03   5.234974e-18   4163456
  1.782267e+00   1.056710e-14   1.842476e-03   5.164307e-18   4207994
  1.788652e+00   1.047802e-14   1.843367e-03   5.092579e-18   4239152
  1.795029e+00   1.040344e-14   1.839132e-03   5.050016e-18   4259426
  1.801407e+00   1.032005e-14   1.842524e-03   4.994857e-18   4299488
  1.807788e+00   1.021798e-14   1.840660e-03   4.924632e-18   4323692
  1.814162e+00   1.014274e-14   1.840093e-03   4.879767e-18   4353242
  1.820541e+00   1.006556e-14   1.841694e-03   4.818306e-18   4388792
