# power spectrum of delta
# redshift z=96.079122
# k              Pk             sigma(k)       sigma(Pk)      count
  3.926991e-03   2.872203e-08   3.512237e-11   1.157736e-08   6
  6.468504e-03   7.593896e-08   9.292307e-04   1.556738e-08   26
  1.075752e-02   3.850922e-07   1.401573e-03   4.309348e-08   114
  1.536034e-02   1.173103e-06   1.321130e-03   8.205441e-08   218
  1.986055e-02   1.964550e-06   1.282852e-03   1.033270e-07   374
  2.412735e-02   3.304400e-06   1.070437e-03   1.516194e-07   474
  2.806277e-02   5.106767e-06   1.114764e-03   2.178556e-07   650
  3.226384e-02   6.212625e-06   1.228263e-03   2.055680e-07   938
  3.651078e-02   7.841226e-06   1.191974e-03   2.339983e-07   1158
  4.085013e-02   9.608823e-06   1.255331e-03   2.381929e-07   1538
  4.514216e-02   1.252858e-05   1.197883e-03   3.038488e-07   1752
  4.940297e-02   1.417439e-05   1.270218e-03   3.027987e-07   2210
  5.382476e-02   1.793417e-05   1.313135e-03   3.635158e-07   2690
  5.822499e-02   2.125052e-05   1.260291e-03   3.995822e-07   3054
  6.261788e-02   2.546317e-05   1.278262e-03   4.295693e-07   3602
  6.689321e-02   2.952141e-05   1.192161e-03   4.770315e-07   3842
  7.113570e-02   3.350839e-05   1.241459e-03   4.977831e-07   4554
  7.543827e-02   3.641979e-05   1.223626e-03   5.166261e-07   5030
  7.964244e-02   4.059629e-05   1.192059e-03   5.667535e-07   5474
  8.383361e-02   4.412906e-05   1.204502e-03   5.711603e-07   6162
  8.813706e-02   4.632587e-05   1.244010e-03   5.396035e-07   7016
  9.251506e-02   4.936523e-05   1.282007e-03   5.560662e-07   7818
  9.690760e-02   5.192059e-05   1.275623e-03   5.748178e-07   8582
  1.012249e-01   5.418606e-05   1.222801e-03   5.584227e-07   8954
  1.055230e-01   5.830964e-05   1.275661e-03   5.688944e-07   10170
  1.098886e-01   6.180632e-05   1.242528e-03   6.000100e-07   10826
  1.141614e-01   6.789254e-05   1.215228e-03   6.410563e-07   11438
  1.184437e-01   7.231194e-05   1.241708e-03   6.518093e-07   12594
  1.227045e-01   7.709695e-05   1.208460e-03   6.678482e-07   13130
  1.269880e-01   8.295092e-05   1.247270e-03   6.907783e-07   14586
  1.313025e-01   8.704847e-05   1.229078e-03   6.963137e-07   15242
  1.356256e-01   9.342979e-05   1.268369e-03   7.366136e-07   16772
  1.399394e-01   9.621365e-05   1.224094e-03   7.301150e-07   17178
  1.442192e-01   1.000263e-04   1.256219e-03   7.230282e-07   18722
  1.485429e-01   1.013494e-04   1.247601e-03   7.271124e-07   19706
  1.528259e-01   1.032562e-04   1.235493e-03   7.173627e-07   20694
  1.571269e-01   1.067349e-04   1.247928e-03   7.278985e-07   22154
  1.614322e-01   1.089124e-04   1.238069e-03   7.209923e-07   23210
  1.657530e-01   1.123274e-04   1.247771e-03   7.130574e-07   24762
  1.700419e-01   1.186780e-04   1.219659e-03   7.446277e-07   25418
  1.743047e-01   1.226288e-04   1.232581e-03   7.399472e-07   27030
  1.785948e-01   1.262165e-04   1.236925e-03   7.551125e-07   28400
  1.829249e-01   1.316996e-04   1.260632e-03   7.645761e-07   30314
  1.872537e-01   1.387091e-04   1.245689e-03   7.894706e-07   31242
  1.915471e-01   1.446310e-04   1.243795e-03   8.104919e-07   32726
  1.958851e-01   1.495434e-04   1.262333e-03   8.062075e-07   34802
  2.001902e-01   1.535014e-04   1.225777e-03   8.233626e-07   35298
  2.044527e-01   1.550197e-04   1.231750e-03   8.048187e-07   37106
  2.087345e-01   1.569847e-04   1.233995e-03   7.963749e-07   38750
  2.130597e-01   1.624648e-04   1.253313e-03   8.043150e-07   41082
  2.173474e-01   1.632337e-04   1.213580e-03   8.083392e-07   41330
  2.216268e-01   1.673544e-04   1.248206e-03   7.955786e-07   44226
  2.259811e-01   1.693386e-04   1.262369e-03   7.888867e-07   46256
  2.302954e-01   1.727433e-04   1.236821e-03   7.961262e-07   47006
  2.346000e-01   1.761078e-04   1.253826e-03   7.894863e-07   49506
  2.389041e-01   1.809655e-04   1.236946e-03   8.100631e-07   50618
  2.432051e-01   1.859661e-04   1.252069e-03   7.980691e-07   53114
  2.475055e-01   1.899755e-04   1.235789e-03   8.198498e-07   54366
  2.518059e-01   1.962159e-04   1.244531e-03   8.243066e-07   56834
  2.560686e-01   1.990580e-04   1.213941e-03   8.306202e-07   57258
  2.603901e-01   2.070941e-04   1.274431e-03   8.275500e-07   62378
  2.647358e-01   2.074474e-04   1.225553e-03   8.341250e-07   61850
  2.690012e-01   2.123395e-04   1.236600e-03   8.430411e-07   64284
  2.733015e-01   2.138066e-04   1.248977e-03   8.236275e-07   66938
  2.776367e-01   2.182287e-04   1.258384e-03   8.428739e-07   69602
  2.819415e-01   2.196550e-04   1.232881e-03   8.242859e-07   70242
  2.862215e-01   2.229548e-04   1.244813e-03   8.270738e-07   73166
  2.905544e-01   2.244290e-04   1.257712e-03   8.121538e-07   76370
  2.948557e-01   2.305941e-04   1.224268e-03   8.306095e-07   76578
  2.991694e-01   2.341264e-04   1.260194e-03   8.258478e-07   81362
  3.034794e-01   2.391501e-04   1.220452e-03   8.338635e-07   80994
  3.077617e-01   2.407331e-04   1.245850e-03   8.262487e-07   85046
  3.120682e-01   2.436750e-04   1.236732e-03   8.298020e-07   86552
  3.163691e-01   2.511702e-04   1.248599e-03   8.387958e-07   89754
  3.206760e-01   2.556727e-04   1.241846e-03   8.495000e-07   91538
  3.249908e-01   2.576370e-04   1.257274e-03   8.347798e-07   95198
  3.292984e-01   2.622497e-04   1.234300e-03   8.478781e-07   96066
  3.335953e-01   2.648772e-04   1.250578e-03   8.311625e-07   99890
  3.379016e-01   2.668133e-04   1.237173e-03   8.442236e-07   101562
  3.421850e-01   2.699490e-04   1.235122e-03   8.429990e-07   103994
  3.465039e-01   2.740887e-04   1.254469e-03   8.355719e-07   108566
  3.508098e-01   2.750629e-04   1.225687e-03   8.346530e-07   108570
  3.550962e-01   2.779529e-04   1.245765e-03   8.190444e-07   113162
  3.594096e-01   2.809676e-04   1.239769e-03   8.298487e-07   115136
  3.637064e-01   2.869893e-04   1.244989e-03   8.382098e-07   118110
  3.680190e-01   2.887948e-04   1.250013e-03   8.311370e-07   121466
  3.723377e-01   2.936990e-04   1.247712e-03   8.350924e-07   124154
  3.766409e-01   2.972641e-04   1.239592e-03   8.436965e-07   126282
  3.809305e-01   2.999561e-04   1.239411e-03   8.364043e-07   129206
  3.852310e-01   3.028596e-04   1.240944e-03   8.393866e-07   132714
  3.895315e-01   3.059634e-04   1.236189e-03   8.348979e-07   135002
  3.938308e-01   3.134042e-04   1.243110e-03   8.415906e-07   138866
  3.981506e-01   3.142249e-04   1.245584e-03   8.348257e-07   142146
  4.024599e-01   3.202362e-04   1.240083e-03   8.423122e-07   144476
  4.067698e-01   3.199204e-04   1.249157e-03   8.316096e-07   148274
  4.110722e-01   3.240765e-04   1.241511e-03   8.327388e-07   150498
  4.153656e-01   3.258233e-04   1.240169e-03   8.353771e-07   153578
  4.196566e-01   3.273701e-04   1.243070e-03   8.305496e-07   156974
  4.239772e-01   3.335645e-04   1.254355e-03   8.289046e-07   162090
  4.282871e-01   3.347926e-04   1.232977e-03   8.321327e-07   162674
  4.325900e-01   3.375476e-04   1.248247e-03   8.209765e-07   168186
  4.368889e-01   3.427839e-04   1.230518e-03   8.328257e-07   168986
  4.411796e-01   3.453334e-04   1.243170e-03   8.288646e-07   174302
  4.454808e-01   3.480074e-04   1.235964e-03   8.280250e-07   176394
  4.497749e-01   3.521489e-04   1.243559e-03   8.292335e-07   180848
  4.540988e-01   3.553896e-04   1.252525e-03   8.258653e-07   185522
  4.584177e-01   3.585515e-04   1.245424e-03   8.278446e-07   187758
  4.627131e-01   3.582756e-04   1.237877e-03   8.221234e-07   190322
  4.670077e-01   3.637415e-04   1.244159e-03   8.237337e-07   194898
  4.713189e-01   3.645490e-04   1.244577e-03   8.169217e-07   198914
  4.756220e-01   3.674777e-04   1.237959e-03   8.244770e-07   201386
  4.799286e-01   3.715710e-04   1.245790e-03   8.228995e-07   206694
  4.842396e-01   3.753442e-04   1.237579e-03   8.254976e-07   208970
  4.885355e-01   3.796965e-04   1.239312e-03   8.244583e-07   212858
  4.928323e-01   3.795722e-04   1.239690e-03   8.159249e-07   216432
  4.971331e-01   3.828830e-04   1.245356e-03   8.111250e-07   220910
  5.014504e-01   3.854632e-04   1.251792e-03   8.116640e-07   225818
  5.057482e-01   3.882782e-04   1.234295e-03   8.136050e-07   226578
  5.100535e-01   3.922071e-04   1.253105e-03   8.099677e-07   234314
  5.143672e-01   3.969223e-04   1.238530e-03   8.181425e-07   235338
  5.186759e-01   3.976715e-04   1.249367e-03   8.077390e-07   241886
  5.229717e-01   4.023969e-04   1.226886e-03   8.166709e-07   241514
  5.272665e-01   4.035032e-04   1.249867e-03   8.064715e-07   250122
  5.315791e-01   4.058640e-04   1.236342e-03   8.039039e-07   251450
  5.358794e-01   4.104218e-04   1.243646e-03   8.119552e-07   256940
  5.401773e-01   4.104754e-04   1.237459e-03   8.051935e-07   259314
  5.444679e-01   4.150443e-04   1.243546e-03   8.051914e-07   264602
  5.487766e-01   4.170131e-04   1.245963e-03   8.037210e-07   269602
  5.530817e-01   4.191787e-04   1.241744e-03   8.007444e-07   272710
  5.573981e-01   4.222102e-04   1.251961e-03   7.977757e-07   279650
  5.617030e-01   4.245102e-04   1.232873e-03   8.061371e-07   279618
  5.660045e-01   4.303649e-04   1.249306e-03   8.041283e-07   288074
  5.703137e-01   4.283999e-04   1.235438e-03   7.957895e-07   289010
  5.746156e-01   4.330346e-04   1.247203e-03   7.945472e-07   296310
  5.789244e-01   4.368302e-04   1.237400e-03   8.020784e-07   298346
  5.832246e-01   4.401147e-04   1.245397e-03   7.961777e-07   304256
  5.875350e-01   4.424843e-04   1.246290e-03   7.975640e-07   308826
  5.918408e-01   4.442341e-04   1.243049e-03   7.919714e-07   312590
  5.961529e-01   4.478875e-04   1.248985e-03   7.928540e-07   318762
  6.004593e-01   4.518823e-04   1.240718e-03   7.943756e-07   321074
  6.047547e-01   4.536856e-04   1.240799e-03   7.988179e-07   326378
  6.090549e-01   4.548940e-04   1.240211e-03   7.924003e-07   330738
  6.133630e-01   4.584581e-04   1.246939e-03   7.902347e-07   337382
  6.176694e-01   4.619761e-04   1.237203e-03   7.915173e-07   339626
  6.219644e-01   4.643206e-04   1.240002e-03   7.920972e-07   345162
  6.262616e-01   4.642042e-04   1.239266e-03   7.859443e-07   349400
  6.305613e-01   4.709085e-04   1.244262e-03   7.901156e-07   355382
  6.348730e-01   4.716111e-04   1.246769e-03   7.871750e-07   360954
  6.391819e-01   4.733379e-04   1.243477e-03   7.887019e-07   364778
  6.435002e-01   4.771844e-04   1.250914e-03   7.858742e-07   372426
  6.478087e-01   4.790427e-04   1.236390e-03   7.859799e-07   372794
  6.521037e-01   4.817305e-04   1.244101e-03   7.825068e-07   380486
  6.564090e-01   4.843157e-04   1.239094e-03   7.793703e-07   384066
  6.607107e-01   4.842787e-04   1.242538e-03   7.790795e-07   390434
  6.650234e-01   4.879417e-04   1.243376e-03   7.779078e-07   395762
  6.693144e-01   4.925854e-04   1.232039e-03   7.819301e-07   397062
  6.736189e-01   4.935594e-04   1.251120e-03   7.735448e-07   408176
  6.779316e-01   4.958255e-04   1.240403e-03   7.764407e-07   409362
  6.822349e-01   4.971429e-04   1.245861e-03   7.703795e-07   416666
  6.865353e-01   5.031252e-04   1.238522e-03   7.780955e-07   419186
  6.908366e-01   5.048071e-04   1.246872e-03   7.748318e-07   427638
  6.951419e-01   5.043240e-04   1.239127e-03   7.708386e-07   430274
  6.994439e-01   5.083443e-04   1.244186e-03   7.696961e-07   438050
  7.037510e-01   5.106363e-04   1.238974e-03   7.724792e-07   441426
  7.080449e-01   5.137371e-04   1.239295e-03   7.687612e-07   446942
  7.123499e-01   5.162901e-04   1.242845e-03   7.661065e-07   453890
  7.166480e-01   5.189444e-04   1.237274e-03   7.677989e-07   456816
  7.209534e-01   5.199863e-04   1.248635e-03   7.610325e-07   466370
  7.252656e-01   5.235840e-04   1.242502e-03   7.685076e-07   469518
  7.295732e-01   5.258907e-04   1.245116e-03   7.641776e-07   476330
  7.338725e-01   5.272172e-04   1.238721e-03   7.635495e-07   478994
  7.381744e-01   5.300932e-04   1.246904e-03   7.590157e-07   488394
  7.424884e-01   5.347957e-04   1.242990e-03   7.620843e-07   492698
  7.467973e-01   5.366054e-04   1.243980e-03   7.607700e-07   498974
  7.510935e-01   5.374342e-04   1.234693e-03   7.605779e-07   501090
  7.553919e-01   5.404395e-04   1.244343e-03   7.553771e-07   511082
  7.597004e-01   5.429616e-04   1.240179e-03   7.572991e-07   514784
  7.639967e-01   5.440473e-04   1.240878e-03   7.553138e-07   520350
  7.683091e-01   5.458274e-04   1.249509e-03   7.496718e-07   530138
  7.726120e-01   5.477023e-04   1.236517e-03   7.533497e-07   529794
  7.769160e-01   5.525011e-04   1.251602e-03   7.535533e-07   542762
  7.812225e-01   5.532797e-04   1.235289e-03   7.506763e-07   541634
  7.855259e-01   5.570330e-04   1.250892e-03   7.493947e-07   554670
  7.898355e-01   5.585356e-04   1.237417e-03   7.491451e-07   554834
  7.941302e-01   5.625599e-04   1.241778e-03   7.487452e-07   563306
  7.984446e-01   5.613919e-04   1.246587e-03   7.435946e-07   571794
  8.027475e-01   5.642265e-04   1.236199e-03   7.461899e-07   572894
  8.070387e-01   5.660613e-04   1.240006e-03   7.433682e-07   580776
  8.113339e-01   5.701371e-04   1.240324e-03   7.470675e-07   586418
  8.156437e-01   5.707777e-04   1.249813e-03   7.405013e-07   597386
  8.199632e-01   5.740864e-04   1.245750e-03   7.398352e-07   601362
  8.242739e-01   5.764749e-04   1.245729e-03   7.388539e-07   608078
  8.285755e-01   5.785201e-04   1.238705e-03   7.404525e-07   610898
  8.328766e-01   5.824283e-04   1.245632e-03   7.381098e-07   621330
  8.371838e-01   5.829105e-04   1.238702e-03   7.384402e-07   624722
  8.414815e-01   5.854540e-04   1.240373e-03   7.363710e-07   631958
  8.457801e-01   5.857540e-04   1.238534e-03   7.350126e-07   637602
  8.500779e-01   5.897542e-04   1.240333e-03   7.373394e-07   644840
  8.543927e-01   5.931733e-04   1.249060e-03   7.347391e-07   655578
  8.587058e-01   5.934493e-04   1.242590e-03   7.321810e-07   657818
  8.630031e-01   5.939847e-04   1.240971e-03   7.267104e-07   664022
  8.673080e-01   5.985954e-04   1.245948e-03   7.310242e-07   672954
  8.716138e-01   5.996147e-04   1.242705e-03   7.280284e-07   678338
  8.759180e-01   6.013987e-04   1.242125e-03   7.282548e-07   685130
  8.802218e-01   6.032415e-04   1.242115e-03   7.279578e-07   692166
  8.845144e-01   6.076957e-04   1.234388e-03   7.293104e-07   694682
  8.888163e-01   6.087799e-04   1.247301e-03   7.242453e-07   709146
  8.931296e-01   6.097643e-04   1.239356e-03   7.244160e-07   711506
  8.974273e-01   6.116312e-04   1.240782e-03   7.207237e-07   718148
  9.017357e-01   6.159181e-04   1.247217e-03   7.220928e-07   729042
  9.060468e-01   6.185452e-04   1.242130e-03   7.245827e-07   732410
  9.103467e-01   6.198081e-04   1.242891e-03   7.220327e-07   739946
  9.146534e-01   6.215721e-04   1.244593e-03   7.198804e-07   747906
  9.189582e-01   6.228832e-04   1.242506e-03   7.169988e-07   754214
  9.232643e-01   6.250514e-04   1.242436e-03   7.154534e-07   761618
  9.275643e-01   6.268120e-04   1.239211e-03   7.169446e-07   766986
  9.318660e-01   6.306459e-04   1.241058e-03   7.156253e-07   775922
  9.361725e-01   6.325766e-04   1.241758e-03   7.140652e-07   783198
  9.404756e-01   6.327914e-04   1.240472e-03   7.136259e-07   789080
  9.447763e-01   6.365641e-04   1.242851e-03   7.141360e-07   796850
  9.490869e-01   6.373769e-04   1.247937e-03   7.094532e-07   807522
  9.533924e-01   6.389620e-04   1.239848e-03   7.086432e-07   808994
  9.577007e-01   6.420257e-04   1.250666e-03   7.049465e-07   824078
  9.620112e-01   6.431383e-04   1.238593e-03   7.082532e-07   823554
  9.663007e-01   6.452083e-04   1.239589e-03   7.069696e-07   831818
  9.705964e-01   6.495163e-04   1.239567e-03   7.083274e-07   839906
  9.749005e-01   6.474627e-04   1.243918e-03   7.031028e-07   850518
  9.792141e-01   6.515905e-04   1.243935e-03   7.028966e-07   858194
  9.835154e-01   6.550354e-04   1.237898e-03   7.078824e-07   861138
  9.878201e-01   6.571782e-04   1.246238e-03   7.033760e-07   874328
  9.921277e-01   6.573252e-04   1.242167e-03   7.043670e-07   877754
  9.964333e-01   6.601857e-04   1.246740e-03   6.998423e-07   889110
  1.000736e+00   6.615456e-04   1.239362e-03   7.006027e-07   891266
  1.005045e+00   6.636847e-04   1.250650e-03   6.973422e-07   907490
  1.009351e+00   6.654699e-04   1.236362e-03   6.979979e-07   905442
  1.013648e+00   6.674509e-04   1.243368e-03   6.950917e-07   919094
  1.017959e+00   6.689147e-04   1.242743e-03   6.918936e-07   926706
  1.022255e+00   6.695999e-04   1.235935e-03   6.942557e-07   929066
  1.026557e+00   6.748718e-04   1.244945e-03   6.949093e-07   944210
  1.030871e+00   6.750665e-04   1.244094e-03   6.953602e-07   950280
  1.035172e+00   6.768274e-04   1.240473e-03   6.935785e-07   954830
  1.039482e+00   6.792775e-04   1.249830e-03   6.909765e-07   969770
  1.043793e+00   6.815096e-04   1.241385e-03   6.916818e-07   971370
  1.048084e+00   6.835252e-04   1.238565e-03   6.920846e-07   976970
  1.052389e+00   6.853217e-04   1.248650e-03   6.856493e-07   993998
  1.056701e+00   6.851968e-04   1.239979e-03   6.871291e-07   995850
  1.061001e+00   6.881856e-04   1.241064e-03   6.853833e-07   1004930
  1.065300e+00   6.914736e-04   1.238399e-03   6.881356e-07   1011570
  1.069600e+00   6.914094e-04   1.241097e-03   6.845487e-07   1021550
  1.073904e+00   6.941131e-04   1.241994e-03   6.859289e-07   1030184
  1.078211e+00   6.959857e-04   1.244718e-03   6.819705e-07   1039458
  1.082516e+00   6.965264e-04   1.242818e-03   6.805011e-07   1046378
  1.086817e+00   7.007690e-04   1.241429e-03   6.840036e-07   1053266
  1.091121e+00   7.014938e-04   1.245400e-03   6.784176e-07   1065414
  1.095433e+00   7.048984e-04   1.244145e-03   6.794747e-07   1073258
  1.099737e+00   7.055809e-04   1.239997e-03   6.784283e-07   1078522
  1.104033e+00   7.078417e-04   1.238538e-03   6.794620e-07   1086226
  1.108335e+00   7.086839e-04   1.242384e-03   6.770556e-07   1098374
  1.112647e+00   7.105161e-04   1.244052e-03   6.761144e-07   1108626
  1.116952e+00   7.118043e-04   1.239083e-03   6.775156e-07   1111466
  1.121259e+00   7.157131e-04   1.247025e-03   6.753803e-07   1127384
  1.125557e+00   7.171418e-04   1.234728e-03   6.768621e-07   1123506
  1.129854e+00   7.183088e-04   1.248772e-03   6.709161e-07   1144814
  1.134168e+00   7.207725e-04   1.243865e-03   6.719494e-07   1149074
  1.138474e+00   7.223949e-04   1.244851e-03   6.705473e-07   1159050
  1.142776e+00   7.239531e-04   1.239251e-03   6.728109e-07   1163282
  1.147076e+00   7.258956e-04   1.243109e-03   6.695745e-07   1176462
  1.151386e+00   7.293233e-04   1.242518e-03   6.705089e-07   1185266
  1.155692e+00   7.282717e-04   1.242010e-03   6.669053e-07   1193066
  1.159992e+00   7.306525e-04   1.238572e-03   6.681266e-07   1199058
  1.164291e+00   7.329984e-04   1.242339e-03   6.678081e-07   1210400
  1.168599e+00   7.352976e-04   1.245940e-03   6.659469e-07   1222238
  1.172906e+00   7.360035e-04   1.242668e-03   6.643120e-07   1227642
  1.177204e+00   7.382937e-04   1.241123e-03   6.644776e-07   1235594
  1.181510e+00   7.397565e-04   1.246370e-03   6.622659e-07   1249850
  1.185818e+00   7.417292e-04   1.242248e-03   6.614659e-07   1255470
  1.190121e+00   7.423874e-04   1.240701e-03   6.596566e-07   1264130
  1.194423e+00   7.447984e-04   1.241739e-03   6.590607e-07   1274130
  1.198728e+00   7.471172e-04   1.242253e-03   6.614266e-07   1283978
  1.203038e+00   7.486435e-04   1.244741e-03   6.572553e-07   1295498
  1.207344e+00   7.496457e-04   1.240214e-03   6.578919e-07   1300158
  1.211643e+00   7.516775e-04   1.241677e-03   6.570117e-07   1309064
  1.215945e+00   7.553754e-04   1.245586e-03   6.571130e-07   1322690
  1.220252e+00   7.563701e-04   1.242364e-03   6.555510e-07   1328658
  1.224558e+00   7.572739e-04   1.246335e-03   6.525635e-07   1342238
  1.228869e+00   7.578965e-04   1.243416e-03   6.535743e-07   1349490
  1.233166e+00   7.618008e-04   1.237892e-03   6.556776e-07   1353506
  1.237466e+00   7.622419e-04   1.242952e-03   6.518329e-07   1369106
  1.241772e+00   7.645737e-04   1.242177e-03   6.504498e-07   1377582
