# power spectrum of zeta (dimensionless)
# redshift z=98.997596
# k              Pk             sigma(k)       sigma(Pk)      count
  3.926991e-03   1.848826e-22   3.512237e-11   3.888098e-23   6
  6.468504e-03   3.207416e-21   9.292307e-04   1.076950e-21   26
  1.075752e-02   2.685172e-20   1.401573e-03   2.854784e-21   114
  1.536034e-02   8.525049e-20   1.321130e-03   6.414776e-21   218
  1.986055e-02   1.389635e-19   1.282852e-03   7.154459e-21   374
  2.412735e-02   2.270431e-19   1.070437e-03   1.016010e-20   474
  2.806277e-02   3.612066e-19   1.114764e-03   1.467101e-20   650
  3.226384e-02   4.505598e-19   1.228263e-03   1.419383e-20   938
  3.651078e-02   5.473660e-19   1.191974e-03   1.614346e-20   1158
  4.085013e-02   6.756382e-19   1.255331e-03   1.719952e-20   1538
  4.514216e-02   8.917040e-19   1.197883e-03   2.149275e-20   1752
  4.940297e-02   9.741244e-19   1.270218e-03   2.097001e-20   2210
  5.382476e-02   1.258750e-18   1.313135e-03   2.548093e-20   2690
  5.822499e-02   1.463894e-18   1.260291e-03   2.797661e-20   3054
  6.261788e-02   1.735067e-18   1.278262e-03   2.928525e-20   3602
  6.689321e-02   2.019433e-18   1.192161e-03   3.217958e-20   3842
  7.113570e-02   2.270134e-18   1.241459e-03   3.365344e-20   4554
  7.543827e-02   2.478618e-18   1.223626e-03   3.496043e-20   5030
  7.964244e-02   2.731442e-18   1.192059e-03   3.793856e-20   5474
  8.383361e-02   2.997314e-18   1.204502e-03   3.896661e-20   6162
  8.813706e-02   3.163103e-18   1.244010e-03   3.678746e-20   7016
  9.251506e-02   3.384466e-18   1.282007e-03   3.837426e-20   7818
  9.690760e-02   3.554875e-18   1.275623e-03   3.949551e-20   8582
  1.012249e-01   3.727273e-18   1.222801e-03   3.868893e-20   8954
  1.055230e-01   3.998186e-18   1.275661e-03   3.919862e-20   10170
  1.098886e-01   4.240621e-18   1.242528e-03   4.107183e-20   10826
  1.141614e-01   4.604165e-18   1.215228e-03   4.328011e-20   11438
  1.184437e-01   4.901455e-18   1.241708e-03   4.415679e-20   12594
  1.227045e-01   5.201822e-18   1.208460e-03   4.495532e-20   13130
  1.269880e-01   5.582342e-18   1.247270e-03   4.659337e-20   14586
  1.313025e-01   5.854392e-18   1.229078e-03   4.685044e-20   15242
  1.356256e-01   6.287439e-18   1.268369e-03   4.956503e-20   16772
  1.399394e-01   6.477445e-18   1.224094e-03   4.917809e-20   17178
  1.442192e-01   6.727663e-18   1.256219e-03   4.878604e-20   18722
  1.485429e-01   6.836626e-18   1.247601e-03   4.907488e-20   19706
  1.528259e-01   6.973408e-18   1.235493e-03   4.840231e-20   20694
  1.571269e-01   7.227320e-18   1.247928e-03   4.930590e-20   22154
  1.614322e-01   7.365897e-18   1.238069e-03   4.884016e-20   23210
  1.657530e-01   7.607335e-18   1.247771e-03   4.824152e-20   24762
  1.700419e-01   8.032714e-18   1.219659e-03   5.051666e-20   25418
  1.743047e-01   8.283433e-18   1.232581e-03   4.990682e-20   27030
  1.785948e-01   8.509037e-18   1.236925e-03   5.084123e-20   28400
  1.829249e-01   8.852196e-18   1.260632e-03   5.137387e-20   30314
  1.872537e-01   9.290230e-18   1.245689e-03   5.303490e-20   31242
  1.915471e-01   9.698118e-18   1.243795e-03   5.420062e-20   32726
  1.958851e-01   1.002032e-17   1.262333e-03   5.389994e-20   34802
  2.001902e-01   1.026307e-17   1.225777e-03   5.518652e-20   35298
  2.044527e-01   1.037613e-17   1.231750e-03   5.385308e-20   37106
  2.087345e-01   1.053420e-17   1.233995e-03   5.346157e-20   38750
  2.130597e-01   1.090934e-17   1.253313e-03   5.397847e-20   41082
  2.173474e-01   1.097781e-17   1.213580e-03   5.443686e-20   41330
  2.216268e-01   1.125954e-17   1.248206e-03   5.350934e-20   44226
  2.259811e-01   1.140891e-17   1.262369e-03   5.320655e-20   46256
  2.302954e-01   1.161738e-17   1.236821e-03   5.366789e-20   47006
  2.346000e-01   1.185014e-17   1.253826e-03   5.315055e-20   49506
  2.389041e-01   1.215712e-17   1.236946e-03   5.439978e-20   50618
  2.432051e-01   1.247205e-17   1.252069e-03   5.348279e-20   53114
  2.475055e-01   1.272222e-17   1.235789e-03   5.484712e-20   54366
  2.518059e-01   1.313504e-17   1.244531e-03   5.514959e-20   56834
  2.560686e-01   1.329592e-17   1.213941e-03   5.546029e-20   57258
  2.603901e-01   1.383310e-17   1.274431e-03   5.523099e-20   62378
  2.647358e-01   1.385628e-17   1.225553e-03   5.569459e-20   61850
  2.690012e-01   1.418120e-17   1.236600e-03   5.630168e-20   64284
  2.733015e-01   1.429582e-17   1.248977e-03   5.500445e-20   66938
  2.776367e-01   1.459921e-17   1.258384e-03   5.638736e-20   69602
  2.819415e-01   1.470356e-17   1.232881e-03   5.515499e-20   70242
  2.862215e-01   1.493163e-17   1.244813e-03   5.536084e-20   73166
  2.905544e-01   1.502456e-17   1.257712e-03   5.438824e-20   76370
  2.948557e-01   1.544338e-17   1.224268e-03   5.556977e-20   76578
  2.991694e-01   1.566211e-17   1.260194e-03   5.521705e-20   81362
  3.034794e-01   1.598594e-17   1.220452e-03   5.580649e-20   80994
  3.077617e-01   1.609222e-17   1.245850e-03   5.521187e-20   85046
  3.120682e-01   1.628609e-17   1.236732e-03   5.547086e-20   86552
  3.163691e-01   1.676746e-17   1.248599e-03   5.595870e-20   89754
  3.206760e-01   1.706704e-17   1.241846e-03   5.669331e-20   91538
  3.249908e-01   1.718059e-17   1.257274e-03   5.566361e-20   95198
  3.292984e-01   1.748519e-17   1.234300e-03   5.654286e-20   96066
  3.335953e-01   1.766030e-17   1.250578e-03   5.542248e-20   99890
  3.379016e-01   1.780453e-17   1.237173e-03   5.628371e-20   101562
  3.421850e-01   1.801122e-17   1.235122e-03   5.626034e-20   103994
  3.465039e-01   1.829634e-17   1.254469e-03   5.581205e-20   108566
  3.508098e-01   1.834678e-17   1.225687e-03   5.561070e-20   108570
  3.550962e-01   1.854074e-17   1.245765e-03   5.468421e-20   113162
  3.594096e-01   1.873916e-17   1.239769e-03   5.534057e-20   115136
  3.637064e-01   1.914475e-17   1.244989e-03   5.594684e-20   118110
  3.680190e-01   1.924955e-17   1.250013e-03   5.536925e-20   121466
  3.723377e-01   1.957792e-17   1.247712e-03   5.571557e-20   124154
  3.766409e-01   1.980307e-17   1.239592e-03   5.621337e-20   126282
  3.809305e-01   1.997661e-17   1.239411e-03   5.570592e-20   129206
  3.852310e-01   2.016316e-17   1.240944e-03   5.588758e-20   132714
  3.895315e-01   2.035764e-17   1.236189e-03   5.554256e-20   135002
  3.938308e-01   2.084325e-17   1.243110e-03   5.596671e-20   138866
  3.981506e-01   2.090153e-17   1.245584e-03   5.547719e-20   142146
  4.024599e-01   2.129922e-17   1.240083e-03   5.601878e-20   144476
  4.067698e-01   2.127467e-17   1.249157e-03   5.527636e-20   148274
  4.110722e-01   2.155872e-17   1.241511e-03   5.540942e-20   150498
  4.153656e-01   2.167856e-17   1.240169e-03   5.555297e-20   153578
  4.196566e-01   2.177231e-17   1.243070e-03   5.525517e-20   156974
  4.239772e-01   2.216825e-17   1.254355e-03   5.506366e-20   162090
  4.282871e-01   2.224753e-17   1.232977e-03   5.530450e-20   162674
  4.325900e-01   2.244518e-17   1.248247e-03   5.460118e-20   168186
  4.368889e-01   2.277465e-17   1.230518e-03   5.531478e-20   168986
  4.411796e-01   2.292982e-17   1.243170e-03   5.501167e-20   174302
  4.454808e-01   2.310145e-17   1.235964e-03   5.492921e-20   176394
  4.497749e-01   2.337070e-17   1.243559e-03   5.505656e-20   180848
  4.540988e-01   2.357721e-17   1.252525e-03   5.482867e-20   185522
  4.584177e-01   2.379252e-17   1.245424e-03   5.490845e-20   187758
  4.627131e-01   2.376061e-17   1.237877e-03   5.454183e-20   190322
  4.670077e-01   2.413326e-17   1.244159e-03   5.462541e-20   194898
  4.713189e-01   2.416793e-17   1.244577e-03   5.413432e-20   198914
  4.756220e-01   2.437122e-17   1.237959e-03   5.469550e-20   201386
  4.799286e-01   2.463422e-17   1.245790e-03   5.455303e-20   206694
  4.842396e-01   2.487626e-17   1.237579e-03   5.469990e-20   208970
  4.885355e-01   2.515833e-17   1.239312e-03   5.460193e-20   212858
  4.928323e-01   2.514337e-17   1.239690e-03   5.406559e-20   216432
  4.971331e-01   2.536718e-17   1.245356e-03   5.372599e-20   220910
  5.014504e-01   2.552621e-17   1.251792e-03   5.374541e-20   225818
  5.057482e-01   2.570808e-17   1.234295e-03   5.386197e-20   226578
  5.100535e-01   2.595457e-17   1.253105e-03   5.359860e-20   234314
  5.143672e-01   2.626520e-17   1.238530e-03   5.413264e-20   235338
  5.186759e-01   2.630935e-17   1.249367e-03   5.343211e-20   241886
  5.229717e-01   2.659529e-17   1.226886e-03   5.397420e-20   241514
  5.272665e-01   2.668093e-17   1.249867e-03   5.335384e-20   250122
  5.315791e-01   2.683940e-17   1.236342e-03   5.316895e-20   251450
  5.358794e-01   2.712530e-17   1.243646e-03   5.366081e-20   256940
  5.401773e-01   2.712952e-17   1.237459e-03   5.322703e-20   259314
  5.444679e-01   2.741766e-17   1.243546e-03   5.319588e-20   264602
  5.487766e-01   2.754495e-17   1.245963e-03   5.309700e-20   269602
  5.530817e-01   2.767821e-17   1.241744e-03   5.286914e-20   272710
  5.573981e-01   2.788518e-17   1.251961e-03   5.271757e-20   279650
  5.617030e-01   2.802300e-17   1.232873e-03   5.322016e-20   279618
  5.660045e-01   2.839660e-17   1.249306e-03   5.307951e-20   288074
  5.703137e-01   2.826709e-17   1.235438e-03   5.249815e-20   289010
  5.746156e-01   2.856616e-17   1.247203e-03   5.241846e-20   296310
  5.789244e-01   2.881484e-17   1.237400e-03   5.289927e-20   298346
  5.832246e-01   2.902489e-17   1.245397e-03   5.247683e-20   304256
  5.875350e-01   2.917932e-17   1.246290e-03   5.261632e-20   308826
  5.918408e-01   2.927083e-17   1.243049e-03   5.216633e-20   312590
  5.961529e-01   2.951319e-17   1.248985e-03   5.222439e-20   318762
  6.004593e-01   2.976354e-17   1.240718e-03   5.234342e-20   321074
  6.047547e-01   2.987171e-17   1.240799e-03   5.259698e-20   326378
  6.090549e-01   2.994675e-17   1.240211e-03   5.215265e-20   330738
  6.133630e-01   3.017396e-17   1.246939e-03   5.202750e-20   337382
  6.176694e-01   3.040245e-17   1.237203e-03   5.211477e-20   339626
  6.219644e-01   3.054942e-17   1.240002e-03   5.211676e-20   345162
  6.262616e-01   3.053075e-17   1.239266e-03   5.168124e-20   349400
  6.305613e-01   3.096299e-17   1.244262e-03   5.194601e-20   355382
  6.348730e-01   3.099645e-17   1.246769e-03   5.173293e-20   360954
  6.391819e-01   3.110454e-17   1.243477e-03   5.184300e-20   364778
  6.435002e-01   3.134899e-17   1.250914e-03   5.163043e-20   372426
  6.478087e-01   3.146251e-17   1.236390e-03   5.162834e-20   372794
  6.521037e-01   3.163761e-17   1.244101e-03   5.139862e-20   380486
  6.564090e-01   3.180389e-17   1.239094e-03   5.119160e-20   384066
  6.607107e-01   3.178277e-17   1.242538e-03   5.111504e-20   390434
  6.650234e-01   3.201893e-17   1.243376e-03   5.105871e-20   395762
  6.693144e-01   3.231654e-17   1.232039e-03   5.128978e-20   397062
  6.736189e-01   3.236693e-17   1.251120e-03   5.073539e-20   408176
  6.779316e-01   3.250172e-17   1.240403e-03   5.088141e-20   409362
  6.822349e-01   3.257439e-17   1.245861e-03   5.047995e-20   416666
  6.865353e-01   3.297097e-17   1.238522e-03   5.099055e-20   419186
  6.908366e-01   3.307603e-17   1.246872e-03   5.077771e-20   427638
  6.951419e-01   3.302569e-17   1.239127e-03   5.046761e-20   430274
  6.994439e-01   3.328531e-17   1.244186e-03   5.039303e-20   438050
  7.037510e-01   3.342048e-17   1.238974e-03   5.056447e-20   441426
  7.080449e-01   3.361542e-17   1.239295e-03   5.030772e-20   446942
  7.123499e-01   3.378001e-17   1.242845e-03   5.011400e-20   453890
  7.166480e-01   3.393377e-17   1.237274e-03   5.020504e-20   456816
  7.209534e-01   3.398905e-17   1.248635e-03   4.974472e-20   466370
  7.252656e-01   3.422020e-17   1.242502e-03   5.022711e-20   469518
  7.295732e-01   3.436054e-17   1.245116e-03   4.993029e-20   476330
  7.338725e-01   3.444287e-17   1.238721e-03   4.990344e-20   478994
  7.381744e-01   3.461432e-17   1.246904e-03   4.957730e-20   488394
  7.424884e-01   3.490683e-17   1.242990e-03   4.975102e-20   492698
  7.467973e-01   3.501516e-17   1.243980e-03   4.963783e-20   498974
  7.510935e-01   3.506742e-17   1.234693e-03   4.961305e-20   501090
  7.553919e-01   3.524586e-17   1.244343e-03   4.925837e-20   511082
  7.597004e-01   3.540171e-17   1.240179e-03   4.937225e-20   514784
  7.639967e-01   3.546280e-17   1.240878e-03   4.922855e-20   520350
  7.683091e-01   3.556328e-17   1.249509e-03   4.885282e-20   530138
  7.726120e-01   3.567676e-17   1.236517e-03   4.907547e-20   529794
  7.769160e-01   3.597804e-17   1.251602e-03   4.908754e-20   542762
  7.812225e-01   3.602949e-17   1.235289e-03   4.888831e-20   541634
  7.855259e-01   3.625426e-17   1.250892e-03   4.877411e-20   554670
  7.898355e-01   3.634009e-17   1.237417e-03   4.874695e-20   554834
  7.941302e-01   3.658756e-17   1.241778e-03   4.868703e-20   563306
  7.984446e-01   3.650500e-17   1.246587e-03   4.835690e-20   571794
  8.027475e-01   3.667357e-17   1.236199e-03   4.849210e-20   572894
  8.070387e-01   3.678623e-17   1.240006e-03   4.832732e-20   580776
  8.113339e-01   3.704673e-17   1.240324e-03   4.851057e-20   586418
  8.156437e-01   3.705765e-17   1.249813e-03   4.808173e-20   597386
  8.199632e-01   3.726524e-17   1.245750e-03   4.802422e-20   601362
  8.242739e-01   3.741851e-17   1.245729e-03   4.795548e-20   608078
  8.285755e-01   3.753950e-17   1.238705e-03   4.804584e-20   610898
  8.328766e-01   3.777614e-17   1.245632e-03   4.788111e-20   621330
  8.371838e-01   3.779459e-17   1.238702e-03   4.788010e-20   624722
  8.414815e-01   3.793443e-17   1.240373e-03   4.771942e-20   631958
  8.457801e-01   3.794986e-17   1.238534e-03   4.761888e-20   637602
  8.500779e-01   3.819462e-17   1.240333e-03   4.775029e-20   644840
  8.543927e-01   3.840075e-17   1.249060e-03   4.758573e-20   655578
  8.587058e-01   3.841365e-17   1.242590e-03   4.738674e-20   657818
  8.630031e-01   3.842468e-17   1.240971e-03   4.701074e-20   664022
  8.673080e-01   3.871404e-17   1.245948e-03   4.726761e-20   672954
  8.716138e-01   3.877655e-17   1.242705e-03   4.708449e-20   678338
  8.759180e-01   3.886468e-17   1.242125e-03   4.704900e-20   685130
  8.802218e-01   3.897760e-17   1.242115e-03   4.702554e-20   692166
  8.845144e-01   3.924744e-17   1.234388e-03   4.710797e-20   694682
  8.888163e-01   3.930395e-17   1.247301e-03   4.674674e-20   709146
  8.931296e-01   3.935537e-17   1.239356e-03   4.675221e-20   711506
  8.974273e-01   3.945900e-17   1.240782e-03   4.650163e-20   718148
  9.017357e-01   3.973170e-17   1.247217e-03   4.658735e-20   729042
  9.060468e-01   3.988238e-17   1.242130e-03   4.670984e-20   732410
  9.103467e-01   3.995278e-17   1.242891e-03   4.652973e-20   739946
  9.146534e-01   4.004010e-17   1.244593e-03   4.636020e-20   747906
  9.189582e-01   4.011951e-17   1.242506e-03   4.618168e-20   754214
  9.232643e-01   4.024566e-17   1.242436e-03   4.608462e-20   761618
  9.275643e-01   4.033651e-17   1.239211e-03   4.613104e-20   766986
  9.318660e-01   4.056934e-17   1.241058e-03   4.601642e-20   775922
  9.361725e-01   4.067936e-17   1.241758e-03   4.592967e-20   783198
  9.404756e-01   4.067456e-17   1.240472e-03   4.586303e-20   789080
  9.447763e-01   4.090980e-17   1.242851e-03   4.590162e-20   796850
  9.490869e-01   4.094419e-17   1.247937e-03   4.556940e-20   807522
  9.533924e-01   4.102950e-17   1.239848e-03   4.549701e-20   808994
  9.577007e-01   4.121807e-17   1.250666e-03   4.526492e-20   824078
  9.620112e-01   4.126996e-17   1.238593e-03   4.544125e-20   823554
  9.663007e-01   4.138460e-17   1.239589e-03   4.534037e-20   831818
  9.705964e-01   4.165282e-17   1.239567e-03   4.542842e-20   839906
  9.749005e-01   4.149558e-17   1.243918e-03   4.504576e-20   850518
  9.792141e-01   4.175254e-17   1.243935e-03   4.502857e-20   858194
  9.835154e-01   4.195698e-17   1.237898e-03   4.533594e-20   861138
  9.878201e-01   4.206861e-17   1.246238e-03   4.502856e-20   874328
  9.921277e-01   4.206868e-17   1.242167e-03   4.509055e-20   877754
  9.964333e-01   4.222622e-17   1.246740e-03   4.476200e-20   889110
  1.000736e+00   4.230194e-17   1.239362e-03   4.479328e-20   891266
  1.005045e+00   4.242024e-17   1.250650e-03   4.458565e-20   907490
  1.009351e+00   4.251948e-17   1.236362e-03   4.459604e-20   905442
  1.013648e+00   4.262427e-17   1.243368e-03   4.438249e-20   919094
  1.017959e+00   4.270437e-17   1.242743e-03   4.416267e-20   926706
  1.022255e+00   4.272819e-17   1.235935e-03   4.429063e-20   929066
  1.026557e+00   4.305334e-17   1.244945e-03   4.432959e-20   944210
  1.030871e+00   4.303491e-17   1.244094e-03   4.433302e-20   950280
  1.035172e+00   4.313973e-17   1.240473e-03   4.420256e-20   954830
  1.039482e+00   4.327703e-17   1.249830e-03   4.402479e-20   969770
  1.043793e+00   4.340404e-17   1.241385e-03   4.404983e-20   971370
  1.048084e+00   4.350663e-17   1.238565e-03   4.405842e-20   976970
  1.052389e+00   4.361130e-17   1.248650e-03   4.364135e-20   993998
  1.056701e+00   4.358215e-17   1.239979e-03   4.371580e-20   995850
  1.061001e+00   4.375255e-17   1.241064e-03   4.358245e-20   1004930
  1.065300e+00   4.394457e-17   1.238399e-03   4.372993e-20   1011570
  1.069600e+00   4.392711e-17   1.241097e-03   4.349347e-20   1021550
  1.073904e+00   4.406455e-17   1.241994e-03   4.354661e-20   1030184
  1.078211e+00   4.416749e-17   1.244718e-03   4.327183e-20   1039458
  1.082516e+00   4.419562e-17   1.242818e-03   4.317156e-20   1046378
  1.086817e+00   4.444565e-17   1.241429e-03   4.337201e-20   1053266
  1.091121e+00   4.445961e-17   1.245400e-03   4.299305e-20   1065414
  1.095433e+00   4.466104e-17   1.244145e-03   4.305114e-20   1073258
  1.099737e+00   4.469342e-17   1.239997e-03   4.296171e-20   1078522
  1.104033e+00   4.480273e-17   1.238538e-03   4.300726e-20   1086226
  1.108335e+00   4.485537e-17   1.242384e-03   4.284636e-20   1098374
  1.112647e+00   4.493501e-17   1.244052e-03   4.275613e-20   1108626
  1.116952e+00   4.500183e-17   1.239083e-03   4.282809e-20   1111466
  1.121259e+00   4.522731e-17   1.247025e-03   4.269149e-20   1127384
  1.125557e+00   4.529615e-17   1.234728e-03   4.275744e-20   1123506
  1.129854e+00   4.534932e-17   1.248772e-03   4.236262e-20   1144814
  1.134168e+00   4.549702e-17   1.243865e-03   4.242427e-20   1149074
  1.138474e+00   4.557693e-17   1.244851e-03   4.230705e-20   1159050
  1.142776e+00   4.564424e-17   1.239251e-03   4.242781e-20   1163282
  1.147076e+00   4.575538e-17   1.243109e-03   4.220593e-20   1176462
  1.151386e+00   4.594274e-17   1.242518e-03   4.224477e-20   1185266
  1.155692e+00   4.586507e-17   1.242010e-03   4.199154e-20   1193066
  1.159992e+00   4.598756e-17   1.238572e-03   4.204674e-20   1199058
  1.164291e+00   4.611743e-17   1.242339e-03   4.202209e-20   1210400
  1.168599e+00   4.624232e-17   1.245940e-03   4.188224e-20   1222238
  1.172906e+00   4.626400e-17   1.242668e-03   4.175947e-20   1227642
  1.177204e+00   4.638862e-17   1.241123e-03   4.174828e-20   1235594
  1.181510e+00   4.644661e-17   1.246370e-03   4.157373e-20   1249850
  1.185818e+00   4.654632e-17   1.242248e-03   4.151171e-20   1255470
  1.190121e+00   4.657412e-17   1.240701e-03   4.138307e-20   1264130
  1.194423e+00   4.670088e-17   1.241739e-03   4.132375e-20   1274130
  1.198728e+00   4.683428e-17   1.242253e-03   4.146922e-20   1283978
  1.203038e+00   4.690073e-17   1.244741e-03   4.118242e-20   1295498
  1.207344e+00   4.694273e-17   1.240214e-03   4.119491e-20   1300158
  1.211643e+00   4.705347e-17   1.241677e-03   4.113190e-20   1309064
  1.215945e+00   4.724978e-17   1.245586e-03   4.108855e-20   1322690
  1.220252e+00   4.729660e-17   1.242364e-03   4.100451e-20   1328658
  1.224558e+00   4.732144e-17   1.246335e-03   4.076676e-20   1342238
  1.228869e+00   4.736019e-17   1.243416e-03   4.084484e-20   1349490
  1.233166e+00   4.756172e-17   1.237892e-03   4.093437e-20   1353506
  1.237466e+00   4.757653e-17   1.242952e-03   4.069446e-20   1369106
