# power spectrum of zeta (dimensionless)
# redshift z=-0.011770
# k              Pk             sigma(k)       sigma(Pk)      count
  5.011399e-03   1.790994e-18   7.667927e-04   3.490720e-19   18
  1.037418e-02   5.046041e-17   1.725047e-03   5.821222e-18   128
  1.616528e-02   2.241040e-16   1.646572e-03   1.265587e-17   314
  2.269071e-02   5.376306e-16   1.954354e-03   2.088524e-17   728
  2.897169e-02   1.023922e-15   1.717946e-03   3.438220e-17   1016
  3.518826e-02   1.418964e-15   1.880676e-03   3.514646e-17   1682
  4.169479e-02   2.115123e-15   1.831736e-03   4.418518e-17   2300
  4.790974e-02   2.687705e-15   1.770731e-03   5.042338e-17   2906
  5.429022e-02   3.567732e-15   1.892687e-03   5.841637e-17   4040
  6.068098e-02   4.612317e-15   1.775551e-03   6.919950e-17   4712
  6.698900e-02   5.806659e-15   1.857705e-03   7.529235e-17   6002
  7.346135e-02   6.830475e-15   1.857594e-03   8.165526e-17   7256
  7.977379e-02   8.090272e-15   1.772571e-03   9.196777e-17   8120
  8.609019e-02   8.783735e-15   1.864951e-03   8.822243e-17   9950
  9.253636e-02   9.650489e-15   1.853578e-03   8.928428e-17   11384
  9.885187e-02   1.022147e-14   1.809244e-03   9.239977e-17   12666
  1.052712e-01   1.126856e-14   1.889168e-03   9.078655e-17   15104
  1.117654e-01   1.228265e-14   1.850532e-03   9.632288e-17   16616
  1.180754e-01   1.383083e-14   1.799489e-03   1.034366e-16   18026
  1.244216e-01   1.501375e-14   1.853405e-03   1.032379e-16   20696
  1.308065e-01   1.614974e-14   1.827918e-03   1.086429e-16   22436
  1.371558e-01   1.748191e-14   1.845873e-03   1.105599e-16   24962
  1.435394e-01   1.834118e-14   1.831283e-03   1.101996e-16   27176
  1.499133e-01   1.876189e-14   1.847268e-03   1.088777e-16   29810
  1.562775e-01   1.950309e-14   1.828450e-03   1.096818e-16   32120
  1.626776e-01   2.024967e-14   1.865216e-03   1.082833e-16   35432
  1.690383e-01   2.131096e-14   1.814577e-03   1.094862e-16   37238
  1.754019e-01   2.229422e-14   1.856016e-03   1.102955e-16   41072
  1.817869e-01   2.324398e-14   1.834293e-03   1.122095e-16   43472
  1.881565e-01   2.443401e-14   1.848176e-03   1.136537e-16   47042
  1.945298e-01   2.570639e-14   1.829223e-03   1.166842e-16   49712
  2.008693e-01   2.659673e-14   1.840592e-03   1.154188e-16   53226
  2.072637e-01   2.658038e-14   1.853753e-03   1.109646e-16   57320
  2.136558e-01   2.740760e-14   1.831629e-03   1.121521e-16   60092
  2.200056e-01   2.804568e-14   1.839426e-03   1.110878e-16   63914
  2.263950e-01   2.835488e-14   1.849752e-03   1.085812e-16   68192
  2.327751e-01   2.908772e-14   1.833934e-03   1.082770e-16   71336
  2.391397e-01   2.979972e-14   1.845607e-03   1.083867e-16   75818
  2.455297e-01   3.059695e-14   1.844019e-03   1.085392e-16   79880
  2.518964e-01   3.117050e-14   1.834462e-03   1.075951e-16   83642
  2.582661e-01   3.223717e-14   1.840779e-03   1.087399e-16   88316
  2.646730e-01   3.257047e-14   1.859422e-03   1.070711e-16   93488
  2.710484e-01   3.292174e-14   1.827184e-03   1.067596e-16   96458
  2.773871e-01   3.336685e-14   1.829038e-03   1.053919e-16   101264
  2.837816e-01   3.362217e-14   1.862873e-03   1.027071e-16   107696
  2.901819e-01   3.400286e-14   1.837217e-03   1.024704e-16   111170
  2.965233e-01   3.448726e-14   1.822285e-03   1.022747e-16   115232
  3.028941e-01   3.487791e-14   1.855375e-03   9.970383e-17   122310
  3.093019e-01   3.490350e-14   1.843350e-03   9.795338e-17   126944
  3.156739e-01   3.563897e-14   1.828600e-03   9.850182e-17   131192
  3.220432e-01   3.561571e-14   1.844535e-03   9.702434e-17   137618
  3.284234e-01   3.611009e-14   1.836674e-03   9.600638e-17   142448
  3.347979e-01   3.642456e-14   1.844704e-03   9.365509e-17   148520
  3.411627e-01   3.650984e-14   1.831436e-03   9.302030e-17   153254
  3.475446e-01   3.672881e-14   1.852010e-03   9.199797e-17   160760
  3.539284e-01   3.670224e-14   1.835751e-03   9.018976e-17   165290
  3.603019e-01   3.717846e-14   1.840148e-03   8.955042e-17   171992
  3.666828e-01   3.711723e-14   1.840217e-03   8.815324e-17   177800
  3.730569e-01   3.725892e-14   1.843032e-03   8.678463e-17   184322
  3.794439e-01   3.769883e-14   1.841595e-03   8.653371e-17   190832
  3.858239e-01   3.752334e-14   1.839260e-03   8.462724e-17   196772
  3.921872e-01   3.787956e-14   1.836453e-03   8.419957e-17   202970
  3.985536e-01   3.795032e-14   1.839266e-03   8.287882e-17   210056
  4.049173e-01   3.771010e-14   1.832832e-03   8.130226e-17   216210
  4.112896e-01   3.787312e-14   1.841640e-03   8.018166e-17   224168
  4.176700e-01   3.787870e-14   1.840761e-03   7.867608e-17   230792
  4.240565e-01   3.805206e-14   1.846256e-03   7.792974e-17   238778
  4.304312e-01   3.799841e-14   1.831772e-03   7.669024e-17   243956
  4.367939e-01   3.792608e-14   1.845141e-03   7.549115e-17   252680
  4.431746e-01   3.785573e-14   1.842020e-03   7.453101e-17   260066
  4.495713e-01   3.798449e-14   1.849294e-03   7.323350e-17   268712
  4.559494e-01   3.792783e-14   1.834336e-03   7.233022e-17   274034
  4.623270e-01   3.785889e-14   1.847366e-03   7.094135e-17   283904
  4.687088e-01   3.787783e-14   1.837425e-03   7.009360e-17   290048
  4.750707e-01   3.776553e-14   1.836659e-03   6.893444e-17   297950
  4.814434e-01   3.771137e-14   1.842026e-03   6.805196e-17   306968
  4.878269e-01   3.778703e-14   1.843240e-03   6.767399e-17   315320
  4.942006e-01   3.738112e-14   1.835899e-03   6.580401e-17   322346
  5.005701e-01   3.740695e-14   1.842589e-03   6.479446e-17   331664
  5.069538e-01   3.738096e-14   1.844896e-03   6.410593e-17   340818
  5.133346e-01   3.740490e-14   1.837322e-03   6.338870e-17   348164
  5.197083e-01   3.718455e-14   1.843548e-03   6.204920e-17   357584
  5.260929e-01   3.705063e-14   1.846059e-03   6.091249e-17   367106
  5.324635e-01   3.702380e-14   1.832285e-03   6.059023e-17   373376
  5.388350e-01   3.696787e-14   1.848023e-03   5.946301e-17   385376
  5.452233e-01   3.672347e-14   1.842356e-03   5.871204e-17   393650
  5.516038e-01   3.653283e-14   1.840588e-03   5.755738e-17   402704
  5.579656e-01   3.651339e-14   1.830970e-03   5.706378e-17   409910
  5.643320e-01   3.635146e-14   1.843407e-03   5.597814e-17   422024
  5.707212e-01   3.617035e-14   1.846526e-03   5.505728e-17   432176
  5.771022e-01   3.600839e-14   1.837404e-03   5.440922e-17   440066
  5.834769e-01   3.578085e-14   1.841263e-03   5.328655e-17   450680
  5.898365e-01   3.587918e-14   1.831084e-03   5.290691e-17   457856
  5.962115e-01   3.568256e-14   1.848347e-03   5.185536e-17   472538
  6.026013e-01   3.562350e-14   1.839689e-03   5.140043e-17   480140
  6.089752e-01   3.534826e-14   1.841279e-03   5.059622e-17   490842
  6.153517e-01   3.520719e-14   1.838382e-03   4.981070e-17   500744
  6.217295e-01   3.503384e-14   1.842392e-03   4.890499e-17   511856
  6.281145e-01   3.488395e-14   1.844734e-03   4.831017e-17   523202
  6.344991e-01   3.485079e-14   1.840396e-03   4.780514e-17   532688
  6.408638e-01   3.466192e-14   1.834541e-03   4.700574e-17   541520
  6.472341e-01   3.447291e-14   1.842653e-03   4.624961e-17   555110
  6.536136e-01   3.438625e-14   1.839126e-03   4.572285e-17   564944
  6.599884e-01   3.421900e-14   1.839832e-03   4.503313e-17   576434
  6.663740e-01   3.396154e-14   1.844405e-03   4.431843e-17   588848
  6.727501e-01   3.385689e-14   1.838623e-03   4.372635e-17   597704
  6.791236e-01   3.372931e-14   1.842386e-03   4.312220e-17   610946
  6.855006e-01   3.365596e-14   1.837794e-03   4.260958e-17   620852
  6.918722e-01   3.349804e-14   1.841901e-03   4.217678e-17   633530
  6.982524e-01   3.332816e-14   1.841844e-03   4.147856e-17   645704
  7.046316e-01   3.307776e-14   1.840565e-03   4.084831e-17   656744
  7.110074e-01   3.295267e-14   1.841941e-03   4.034784e-17   669162
  7.173906e-01   3.283223e-14   1.843286e-03   3.970850e-17   681992
  7.237681e-01   3.258813e-14   1.838959e-03   3.932004e-17   692360
  7.301485e-01   3.243157e-14   1.844364e-03   3.866011e-17   707006
  7.365206e-01   3.214520e-14   1.834135e-03   3.812642e-17   714944
  7.428835e-01   3.229008e-14   1.841775e-03   3.770682e-17   730346
  7.492606e-01   3.195383e-14   1.838962e-03   3.706802e-17   742616
  7.556415e-01   3.187603e-14   1.843530e-03   3.668223e-17   756536
  7.620128e-01   3.176103e-14   1.836595e-03   3.631494e-17   766418
  7.683917e-01   3.159283e-14   1.845753e-03   3.571028e-17   783392
  7.747614e-01   3.144476e-14   1.833632e-03   3.539005e-17   790412
  7.811334e-01   3.126293e-14   1.848120e-03   3.474534e-17   810314
  7.875277e-01   3.116564e-14   1.843702e-03   3.442580e-17   821960
  7.938987e-01   3.094656e-14   1.834976e-03   3.400077e-17   831266
  8.002712e-01   3.081726e-14   1.843706e-03   3.343086e-17   848960
  8.066557e-01   3.058130e-14   1.842629e-03   3.291571e-17   861488
  8.130204e-01   3.041554e-14   1.833334e-03   3.261128e-17   871194
  8.193985e-01   3.027659e-14   1.847247e-03   3.200259e-17   891788
  8.257796e-01   3.017854e-14   1.838008e-03   3.179211e-17   900416
  8.321422e-01   3.010197e-14   1.836250e-03   3.157007e-17   914306
  8.385264e-01   2.994928e-14   1.847988e-03   3.102818e-17   933992
  8.449011e-01   2.968311e-14   1.834294e-03   3.064401e-17   940826
  8.512701e-01   2.954115e-14   1.842364e-03   3.014000e-17   960224
  8.576621e-01   2.943872e-14   1.846556e-03   2.984134e-17   976316
  8.640381e-01   2.925750e-14   1.835724e-03   2.954850e-17   985010
  8.704114e-01   2.907566e-14   1.843336e-03   2.903040e-17   1004024
  8.767898e-01   2.890627e-14   1.839706e-03   2.870921e-17   1016288
  8.831639e-01   2.884615e-14   1.840690e-03   2.840761e-17   1032290
  8.895470e-01   2.864772e-14   1.843156e-03   2.797324e-17   1048640
  8.959130e-01   2.855088e-14   1.831919e-03   2.778651e-17   1057250
  9.022937e-01   2.838717e-14   1.849588e-03   2.721634e-17   1083140
  9.086870e-01   2.817549e-14   1.840763e-03   2.696737e-17   1092248
  9.150555e-01   2.802092e-14   1.837510e-03   2.669497e-17   1105914
  9.214310e-01   2.787034e-14   1.841822e-03   2.628617e-17   1124744
  9.278120e-01   2.772296e-14   1.841202e-03   2.597365e-17   1139120
  9.341841e-01   2.760858e-14   1.838536e-03   2.570815e-17   1153490
  9.405650e-01   2.736293e-14   1.844187e-03   2.526842e-17   1172936
  9.469357e-01   2.722726e-14   1.834491e-03   2.506266e-17   1182158
  9.533110e-01   2.709392e-14   1.846126e-03   2.465450e-17   1206392
  9.596894e-01   2.694860e-14   1.835525e-03   2.441759e-17   1215224
  9.660641e-01   2.678571e-14   1.844936e-03   2.409991e-17   1237874
  9.724505e-01   2.662930e-14   1.841050e-03   2.379101e-17   1251800
  9.788233e-01   2.648273e-14   1.838619e-03   2.360252e-17   1265792
  9.851993e-01   2.636228e-14   1.843109e-03   2.327058e-17   1286306
  9.915793e-01   2.619720e-14   1.838809e-03   2.299052e-17   1299764
  9.979438e-01   2.594172e-14   1.836769e-03   2.269168e-17   1314554
  1.004319e+00   2.584289e-14   1.843595e-03   2.235271e-17   1337288
  1.010703e+00   2.569715e-14   1.840912e-03   2.211137e-17   1351304
  1.017077e+00   2.558602e-14   1.841769e-03   2.188094e-17   1369026
  1.023461e+00   2.539388e-14   1.843478e-03   2.156109e-17   1388456
  1.029842e+00   2.530388e-14   1.840406e-03   2.137294e-17   1402700
  1.036211e+00   2.508191e-14   1.837802e-03   2.109560e-17   1418282
  1.042587e+00   2.495973e-14   1.843596e-03   2.082162e-17   1440272
  1.048964e+00   2.476940e-14   1.838705e-03   2.053078e-17   1454114
  1.055341e+00   2.465366e-14   1.842603e-03   2.032526e-17   1475480
  1.061720e+00   2.448099e-14   1.840520e-03   2.006784e-17   1490936
  1.068091e+00   2.439158e-14   1.838519e-03   1.986842e-17   1507826
  1.074472e+00   2.425139e-14   1.844275e-03   1.963759e-17   1530764
  1.080850e+00   2.406664e-14   1.839052e-03   1.939669e-17   1543424
  1.087222e+00   2.389416e-14   1.841688e-03   1.913016e-17   1564946
  1.093594e+00   2.377819e-14   1.835875e-03   1.894961e-17   1578536
  1.099970e+00   2.362248e-14   1.845670e-03   1.862910e-17   1604882
  1.106358e+00   2.343782e-14   1.842454e-03   1.842955e-17   1621304
  1.112736e+00   2.331367e-14   1.839545e-03   1.821211e-17   1637024
  1.119103e+00   2.316684e-14   1.837794e-03   1.801969e-17   1654134
  1.125480e+00   2.301705e-14   1.844256e-03   1.777149e-17   1679168
  1.131864e+00   2.291988e-14   1.841903e-03   1.759396e-17   1695944
  1.138235e+00   2.273905e-14   1.836568e-03   1.736776e-17   1710602
  1.144612e+00   2.261687e-14   1.844777e-03   1.718347e-17   1737056
  1.150994e+00   2.249615e-14   1.840390e-03   1.697069e-17   1752602
  1.157370e+00   2.231734e-14   1.839227e-03   1.678846e-17   1772024
  1.163752e+00   2.215494e-14   1.844090e-03   1.656140e-17   1795364
  1.170126e+00   2.200238e-14   1.836467e-03   1.633208e-17   1807634
  1.176490e+00   2.188632e-14   1.836183e-03   1.621587e-17   1827608
  1.182859e+00   2.174356e-14   1.840789e-03   1.597933e-17   1850984
  1.189240e+00   2.162274e-14   1.844107e-03   1.580653e-17   1874618
  1.195619e+00   2.145346e-14   1.838445e-03   1.562151e-17   1889504
  1.202001e+00   2.127479e-14   1.845373e-03   1.537547e-17   1916870
  1.208383e+00   2.117720e-14   1.838254e-03   1.525720e-17   1929728
  1.214760e+00   2.102822e-14   1.843674e-03   1.506469e-17   1955408
  1.221131e+00   2.086416e-14   1.834427e-03   1.490166e-17   1966842
  1.227503e+00   2.074760e-14   1.843005e-03   1.470690e-17   1996640
  1.233886e+00   2.059598e-14   1.842690e-03   1.452230e-17   2016392
  1.240265e+00   2.050105e-14   1.839730e-03   1.437202e-17   2034722
  1.246641e+00   2.034324e-14   1.840813e-03   1.419075e-17   2056460
  1.253014e+00   2.022433e-14   1.838931e-03   1.404998e-17   2075186
  1.259388e+00   2.005930e-14   1.840566e-03   1.384916e-17   2099096
  1.265761e+00   1.991138e-14   1.837910e-03   1.368667e-17   2116832
  1.272138e+00   1.979406e-14   1.844119e-03   1.351637e-17   2145146
  1.278526e+00   1.967268e-14   1.844128e-03   1.336661e-17   2166776
  1.284904e+00   1.954621e-14   1.838822e-03   1.324644e-17   2181848
  1.291273e+00   1.940522e-14   1.838785e-03   1.309433e-17   2203766
  1.297646e+00   1.925226e-14   1.840619e-03   1.292499e-17   2227664
  1.304025e+00   1.910535e-14   1.842381e-03   1.273722e-17   2252138
  1.310403e+00   1.902278e-14   1.839825e-03   1.262916e-17   2271152
  1.316777e+00   1.890350e-14   1.840536e-03   1.249417e-17   2293256
  1.323154e+00   1.873678e-14   1.842085e-03   1.232549e-17   2318130
  1.329536e+00   1.857752e-14   1.841956e-03   1.215005e-17   2340824
  1.335910e+00   1.847142e-14   1.838342e-03   1.204664e-17   2357990
  1.342292e+00   1.833070e-14   1.846396e-03   1.186678e-17   2391176
  1.348671e+00   1.819344e-14   1.837209e-03   1.175379e-17   2401808
  1.355040e+00   1.806608e-14   1.840258e-03   1.159947e-17   2428442
  1.361418e+00   1.797725e-14   1.842645e-03   1.147762e-17   2454752
  1.367798e+00   1.783966e-14   1.841270e-03   1.135987e-17   2475872
  1.374172e+00   1.772821e-14   1.838763e-03   1.121460e-17   2495822
  1.380543e+00   1.760462e-14   1.839940e-03   1.111248e-17   2520248
  1.386922e+00   1.748883e-14   1.844043e-03   1.097316e-17   2549186
  1.393299e+00   1.732876e-14   1.837661e-03   1.083348e-17   2564768
  1.399672e+00   1.721564e-14   1.841284e-03   1.070602e-17   2592968
  1.406054e+00   1.709204e-14   1.843378e-03   1.058466e-17   2619818
  1.412431e+00   1.698727e-14   1.838027e-03   1.047466e-17   2636384
  1.418803e+00   1.684797e-14   1.840293e-03   1.034258e-17   2662220
  1.425180e+00   1.673261e-14   1.842524e-03   1.021968e-17   2689770
  1.431560e+00   1.661243e-14   1.840994e-03   1.009890e-17   2712296
  1.437933e+00   1.648928e-14   1.838431e-03   9.984285e-18   2732618
  1.444312e+00   1.636091e-14   1.843932e-03   9.849548e-18   2765264
  1.450695e+00   1.624659e-14   1.840894e-03   9.754916e-18   2784824
  1.457066e+00   1.613391e-14   1.837138e-03   9.636241e-18   2804162
  1.463445e+00   1.602658e-14   1.844971e-03   9.522759e-18   2840612
  1.469825e+00   1.590931e-14   1.839130e-03   9.425219e-18   2855576
  1.476198e+00   1.578991e-14   1.840533e-03   9.302643e-18   2883458
  1.482571e+00   1.566374e-14   1.838217e-03   9.211103e-18   2904128
  1.488946e+00   1.553539e-14   1.843378e-03   9.080656e-18   2937026
  1.495325e+00   1.545004e-14   1.839218e-03   9.000316e-18   2956976
  1.501703e+00   1.533534e-14   1.841967e-03   8.898819e-18   2986472
  1.508082e+00   1.521110e-14   1.840166e-03   8.783476e-18   3008918
  1.514460e+00   1.507948e-14   1.841773e-03   8.661310e-18   3036752
  1.520836e+00   1.499614e-14   1.839884e-03   8.582537e-18   3058376
  1.527209e+00   1.489240e-14   1.839616e-03   8.491049e-18   3084210
  1.533583e+00   1.476900e-14   1.840948e-03   8.386655e-18   3111848
  1.539960e+00   1.464357e-14   1.841348e-03   8.263901e-18   3138890
  1.546339e+00   1.456670e-14   1.840626e-03   8.183861e-18   3164516
  1.552719e+00   1.443048e-14   1.842638e-03   8.086184e-18   3192656
  1.559097e+00   1.434001e-14   1.840555e-03   8.008153e-18   3215618
  1.565473e+00   1.424399e-14   1.840732e-03   7.920078e-18   3242888
  1.571846e+00   1.411395e-14   1.839114e-03   7.822177e-18   3265448
  1.578224e+00   1.398715e-14   1.843575e-03   7.708975e-18   3300842
  1.584604e+00   1.391571e-14   1.839884e-03   7.652810e-18   3321008
  1.590977e+00   1.379374e-14   1.839336e-03   7.554164e-18   3346406
  1.597352e+00   1.367697e-14   1.841596e-03   7.452533e-18   3377984
  1.603728e+00   1.358158e-14   1.839551e-03   7.376749e-18   3400352
  1.610103e+00   1.349563e-14   1.841321e-03   7.296312e-18   3431450
  1.616483e+00   1.338055e-14   1.841519e-03   7.201508e-18   3458768
  1.622859e+00   1.330697e-14   1.841183e-03   7.140514e-18   3484088
  1.629231e+00   1.318173e-14   1.838425e-03   7.052736e-18   3508218
  1.635610e+00   1.309785e-14   1.843946e-03   6.973128e-18   3545924
  1.641992e+00   1.298679e-14   1.841053e-03   6.890424e-18   3567530
  1.648369e+00   1.288515e-14   1.840183e-03   6.801001e-18   3595040
  1.654744e+00   1.276073e-14   1.840167e-03   6.717206e-18   3621176
  1.661115e+00   1.269128e-14   1.839521e-03   6.657996e-18   3647738
  1.667490e+00   1.259261e-14   1.841438e-03   6.577575e-18   3680480
  1.673870e+00   1.248733e-14   1.842082e-03   6.490308e-18   3709712
  1.680248e+00   1.240134e-14   1.840008e-03   6.424382e-18   3734702
  1.686623e+00   1.232221e-14   1.840362e-03   6.358341e-18   3762776
  1.692996e+00   1.221988e-14   1.839854e-03   6.289749e-18   3790514
  1.699371e+00   1.212021e-14   1.839908e-03   6.209514e-18   3820352
  1.705752e+00   1.202703e-14   1.844068e-03   6.138508e-18   3856016
  1.712131e+00   1.193286e-14   1.839690e-03   6.077548e-18   3876818
  1.718506e+00   1.183914e-14   1.839874e-03   6.002696e-18   3906332
  1.724882e+00   1.175322e-14   1.841963e-03   5.936698e-18   3938216
  1.731260e+00   1.164783e-14   1.840685e-03   5.856517e-18   3966354
  1.737636e+00   1.155845e-14   1.839695e-03   5.800511e-18   3993536
  1.744011e+00   1.148183e-14   1.840344e-03   5.740469e-18   4024034
  1.750392e+00   1.139655e-14   1.843071e-03   5.670363e-18   4060208
  1.756773e+00   1.129207e-14   1.840812e-03   5.595888e-18   4083632
  1.763145e+00   1.121988e-14   1.837811e-03   5.531405e-18   4107062
  1.769521e+00   1.112492e-14   1.842771e-03   5.482568e-18   4148072
  1.775893e+00   1.103737e-14   1.836707e-03   5.422691e-18   4163456
  1.782267e+00   1.095633e-14   1.842476e-03   5.351902e-18   4207994
  1.788652e+00   1.085982e-14   1.843367e-03   5.280829e-18   4239152
  1.795029e+00   1.078087e-14   1.839132e-03   5.235186e-18   4259426
  1.801407e+00   1.070571e-14   1.842524e-03   5.180588e-18   4299488
  1.807788e+00   1.060497e-14   1.840660e-03   5.109945e-18   4323692
  1.814162e+00   1.052294e-14   1.840093e-03   5.062445e-18   4353242
  1.820541e+00   1.044041e-14   1.841694e-03   4.998802e-18   4388792
