# power spectrum of delta
# redshift z=0.996041
# k              Pk             sigma(k)       sigma(Pk)      count
  5.011399e-03   1.663455e-05   7.667927e-04   3.263377e-06   18
  1.037418e-02   4.872947e-04   1.725047e-03   5.627771e-05   128
  1.616528e-02   2.179270e-03   1.646572e-03   1.231439e-04   314
  2.269071e-02   5.249906e-03   1.954354e-03   2.041654e-04   728
  2.897169e-02   1.001458e-02   1.717946e-03   3.362627e-04   1016
  3.518826e-02   1.391441e-02   1.880676e-03   3.450562e-04   1682
  4.169479e-02   2.078456e-02   1.831736e-03   4.335048e-04   2300
  4.790974e-02   2.651538e-02   1.770731e-03   4.973305e-04   2906
  5.429022e-02   3.523648e-02   1.892687e-03   5.759935e-04   4040
  6.068098e-02   4.581590e-02   1.775551e-03   6.861945e-04   4712
  6.698900e-02   5.783076e-02   1.857705e-03   7.509837e-04   6002
  7.346135e-02   6.837363e-02   1.857594e-03   8.185224e-04   7256
  7.977379e-02   8.154774e-02   1.772571e-03   9.285935e-04   8120
  8.609019e-02   8.908493e-02   1.864951e-03   8.956422e-04   9950
  9.253636e-02   9.869832e-02   1.853578e-03   9.131493e-04   11384
  9.885187e-02   1.054192e-01   1.809244e-03   9.546668e-04   12666
  1.052712e-01   1.173942e-01   1.889168e-03   9.464454e-04   15104
  1.117654e-01   1.288959e-01   1.850532e-03   1.010081e-03   16616
  1.180754e-01   1.463171e-01   1.799489e-03   1.093267e-03   18026
  1.244216e-01   1.601410e-01   1.853405e-03   1.102702e-03   20696
  1.308065e-01   1.737873e-01   1.827918e-03   1.168147e-03   22436
  1.371558e-01   1.898879e-01   1.845873e-03   1.198557e-03   24962
  1.435394e-01   2.019574e-01   1.831283e-03   1.215836e-03   27176
  1.499133e-01   2.092520e-01   1.847268e-03   1.214321e-03   29810
  1.562775e-01   2.207697e-01   1.828450e-03   1.241402e-03   32120
  1.626776e-01   2.327851e-01   1.865216e-03   1.245757e-03   35432
  1.690383e-01   2.482902e-01   1.814577e-03   1.276666e-03   37238
  1.754019e-01   2.629003e-01   1.856016e-03   1.300821e-03   41072
  1.817869e-01   2.778991e-01   1.834293e-03   1.339967e-03   43472
  1.881565e-01   2.953520e-01   1.848176e-03   1.376039e-03   47042
  1.945298e-01   3.151328e-01   1.829223e-03   1.427018e-03   49712
  2.008693e-01   3.314161e-01   1.840592e-03   1.436569e-03   53226
  2.072637e-01   3.368462e-01   1.853753e-03   1.406270e-03   57320
  2.136558e-01   3.533999e-01   1.831629e-03   1.444372e-03   60092
  2.200056e-01   3.678410e-01   1.839426e-03   1.456009e-03   63914
  2.263950e-01   3.785949e-01   1.849752e-03   1.451851e-03   68192
  2.327751e-01   3.951541e-01   1.833934e-03   1.472645e-03   71336
  2.391397e-01   4.118866e-01   1.845607e-03   1.499360e-03   75818
  2.455297e-01   4.303238e-01   1.844019e-03   1.523796e-03   79880
  2.518964e-01   4.461847e-01   1.834462e-03   1.539265e-03   83642
  2.582661e-01   4.692437e-01   1.840779e-03   1.583737e-03   88316
  2.646730e-01   4.827575e-01   1.859422e-03   1.585674e-03   93488
  2.710484e-01   4.977911e-01   1.827184e-03   1.616452e-03   96458
  2.773871e-01   5.147550e-01   1.829038e-03   1.623217e-03   101264
  2.837816e-01   5.295341e-01   1.862873e-03   1.621044e-03   107696
  2.901819e-01   5.466310e-01   1.837217e-03   1.646021e-03   111170
  2.965233e-01   5.657312e-01   1.822285e-03   1.677350e-03   115232
  3.028941e-01   5.823645e-01   1.855375e-03   1.664343e-03   122310
  3.093019e-01   5.950635e-01   1.843350e-03   1.671808e-03   126944
  3.156739e-01   6.199837e-01   1.828600e-03   1.712396e-03   131192
  3.220432e-01   6.322444e-01   1.844535e-03   1.721488e-03   137618
  3.284234e-01   6.539433e-01   1.836674e-03   1.734509e-03   142448
  3.347979e-01   6.753356e-01   1.844704e-03   1.733510e-03   148520
  3.411627e-01   6.911990e-01   1.831436e-03   1.760249e-03   153254
  3.475446e-01   7.094377e-01   1.852010e-03   1.776250e-03   160760
  3.539284e-01   7.252395e-01   1.835751e-03   1.781903e-03   165290
  3.603019e-01   7.498737e-01   1.840148e-03   1.804916e-03   171992
  3.666828e-01   7.656255e-01   1.840217e-03   1.818207e-03   177800
  3.730569e-01   7.844189e-01   1.843032e-03   1.826849e-03   184322
  3.794439e-01   8.117504e-01   1.841595e-03   1.858386e-03   190832
  3.858239e-01   8.261353e-01   1.839260e-03   1.865803e-03   196772
  3.921872e-01   8.518353e-01   1.836453e-03   1.894176e-03   202970
  3.985536e-01   8.719321e-01   1.839266e-03   1.902808e-03   210056
  4.049173e-01   8.854209e-01   1.832832e-03   1.906836e-03   216210
  4.112896e-01   9.096438e-01   1.841640e-03   1.924815e-03   224168
  4.176700e-01   9.315572e-01   1.840761e-03   1.933413e-03   230792
  4.240565e-01   9.548206e-01   1.846256e-03   1.952035e-03   238778
  4.304312e-01   9.753824e-01   1.831772e-03   1.969076e-03   243956
  4.367939e-01   9.945434e-01   1.845141e-03   1.976495e-03   252680
  4.431746e-01   1.014352e+00   1.842020e-03   1.996643e-03   260066
  4.495713e-01   1.041321e+00   1.849294e-03   2.008584e-03   268712
  4.559494e-01   1.063517e+00   1.834336e-03   2.028263e-03   274034
  4.623270e-01   1.085435e+00   1.847366e-03   2.034408e-03   283904
  4.687088e-01   1.111864e+00   1.837425e-03   2.058956e-03   290048
  4.750707e-01   1.131541e+00   1.836659e-03   2.069823e-03   297950
  4.814434e-01   1.154609e+00   1.842026e-03   2.085683e-03   306968
  4.878269e-01   1.183710e+00   1.843240e-03   2.115591e-03   315320
  4.942006e-01   1.197611e+00   1.835899e-03   2.105958e-03   322346
  5.005701e-01   1.223653e+00   1.842589e-03   2.118948e-03   331664
  5.069538e-01   1.250710e+00   1.844896e-03   2.143628e-03   340818
  5.133346e-01   1.279423e+00   1.837322e-03   2.168601e-03   348164
  5.197083e-01   1.298328e+00   1.843548e-03   2.171090e-03   357584
  5.260929e-01   1.324310e+00   1.846059e-03   2.175228e-03   367106
  5.324635e-01   1.350832e+00   1.832285e-03   2.216044e-03   373376
  5.388350e-01   1.378524e+00   1.848023e-03   2.218559e-03   385376
  5.452233e-01   1.399401e+00   1.842356e-03   2.235554e-03   393650
  5.516038e-01   1.423145e+00   1.840588e-03   2.244524e-03   402704
  5.579656e-01   1.454743e+00   1.830970e-03   2.277727e-03   409910
  5.643320e-01   1.474061e+00   1.843407e-03   2.266240e-03   422024
  5.707212e-01   1.497301e+00   1.846526e-03   2.278846e-03   432176
  5.771022e-01   1.524640e+00   1.837404e-03   2.305921e-03   440066
  5.834769e-01   1.548600e+00   1.841263e-03   2.310265e-03   450680
  5.898365e-01   1.584127e+00   1.831084e-03   2.336333e-03   457856
  5.962115e-01   1.608220e+00   1.848347e-03   2.336891e-03   472538
  6.026013e-01   1.636432e+00   1.839689e-03   2.360833e-03   480140
  6.089752e-01   1.662600e+00   1.841279e-03   2.381346e-03   490842
  6.153517e-01   1.688841e+00   1.838382e-03   2.390937e-03   500744
  6.217295e-01   1.713565e+00   1.842392e-03   2.389840e-03   511856
  6.281145e-01   1.743032e+00   1.844734e-03   2.417115e-03   523202
  6.344991e-01   1.775958e+00   1.840396e-03   2.435140e-03   532688
  6.408638e-01   1.802724e+00   1.834541e-03   2.446220e-03   541520
  6.472341e-01   1.830996e+00   1.842653e-03   2.457025e-03   555110
  6.536136e-01   1.862294e+00   1.839126e-03   2.476223e-03   564944
  6.599884e-01   1.888694e+00   1.839832e-03   2.483603e-03   576434
  6.663740e-01   1.910209e+00   1.844405e-03   2.487799e-03   588848
  6.727501e-01   1.942306e+00   1.838623e-03   2.513050e-03   597704
  6.791236e-01   1.976809e+00   1.842386e-03   2.525561e-03   610946
  6.855006e-01   2.008629e+00   1.837794e-03   2.539009e-03   620852
  6.918722e-01   2.041010e+00   1.841901e-03   2.569324e-03   633530
  6.982524e-01   2.063597e+00   1.841844e-03   2.571071e-03   645704
  7.046316e-01   2.095557e+00   1.840565e-03   2.585793e-03   656744
  7.110074e-01   2.119080e+00   1.841941e-03   2.598178e-03   669162
  7.173906e-01   2.153322e+00   1.843286e-03   2.607068e-03   681992
  7.237681e-01   2.181310e+00   1.838959e-03   2.634115e-03   692360
  7.301485e-01   2.211795e+00   1.844364e-03   2.635746e-03   707006
  7.365206e-01   2.235970e+00   1.834135e-03   2.651235e-03   714944
  7.428835e-01   2.285249e+00   1.841775e-03   2.666763e-03   730346
  7.492606e-01   2.304798e+00   1.838962e-03   2.666134e-03   742616
  7.556415e-01   2.343959e+00   1.843530e-03   2.698652e-03   756536
  7.620128e-01   2.378768e+00   1.836595e-03   2.722820e-03   766418
  7.683917e-01   2.407072e+00   1.845753e-03   2.717257e-03   783392
  7.747614e-01   2.441045e+00   1.833632e-03   2.743781e-03   790412
  7.811334e-01   2.475026e+00   1.848120e-03   2.748494e-03   810314
  7.875277e-01   2.509475e+00   1.843702e-03   2.771899e-03   821960
  7.938987e-01   2.532579e+00   1.834976e-03   2.782155e-03   831266
  8.002712e-01   2.569828e+00   1.843706e-03   2.790128e-03   848960
  8.066557e-01   2.594946e+00   1.842629e-03   2.799120e-03   861488
  8.130204e-01   2.631175e+00   1.833334e-03   2.821063e-03   871194
  8.193985e-01   2.666255e+00   1.847247e-03   2.816231e-03   891788
  8.257796e-01   2.700413e+00   1.838008e-03   2.847945e-03   900416
  8.321422e-01   2.740375e+00   1.836250e-03   2.862730e-03   914306
  8.385264e-01   2.773815e+00   1.847988e-03   2.875464e-03   933992
  8.449011e-01   2.798783e+00   1.834294e-03   2.894836e-03   940826
  8.512701e-01   2.845275e+00   1.842364e-03   2.902560e-03   960224
  8.576621e-01   2.872220e+00   1.846556e-03   2.908644e-03   976316
  8.640381e-01   2.905290e+00   1.835724e-03   2.933517e-03   985010
  8.704114e-01   2.939975e+00   1.843336e-03   2.938846e-03   1004024
  8.767898e-01   2.973023e+00   1.839706e-03   2.946057e-03   1016288
  8.831639e-01   3.017912e+00   1.840690e-03   2.973940e-03   1032290
  8.895470e-01   3.050976e+00   1.843156e-03   2.982660e-03   1048640
  8.959130e-01   3.086518e+00   1.831919e-03   3.005034e-03   1057250
  9.022937e-01   3.120709e+00   1.849588e-03   2.998774e-03   1083140
  9.086870e-01   3.154532e+00   1.840763e-03   3.022407e-03   1092248
  9.150555e-01   3.188857e+00   1.837510e-03   3.029202e-03   1105914
  9.214310e-01   3.222522e+00   1.841822e-03   3.047556e-03   1124744
  9.278120e-01   3.261669e+00   1.841202e-03   3.053881e-03   1139120
  9.341841e-01   3.298857e+00   1.838536e-03   3.070916e-03   1153490
  9.405650e-01   3.331836e+00   1.844187e-03   3.073556e-03   1172936
  9.469357e-01   3.369463e+00   1.834491e-03   3.102555e-03   1182158
  9.533110e-01   3.398061e+00   1.846126e-03   3.098221e-03   1206392
  9.596894e-01   3.450187e+00   1.835525e-03   3.123974e-03   1215224
  9.660641e-01   3.478887e+00   1.844936e-03   3.130206e-03   1237874
  9.724505e-01   3.510347e+00   1.841050e-03   3.145302e-03   1251800
  9.788233e-01   3.552434e+00   1.838619e-03   3.154612e-03   1265792
  9.851993e-01   3.595111e+00   1.843109e-03   3.174174e-03   1286306
  9.915793e-01   3.629792e+00   1.838809e-03   3.186567e-03   1299764
  9.979438e-01   3.661690e+00   1.836769e-03   3.194869e-03   1314554
  1.004319e+00   3.700928e+00   1.843595e-03   3.209095e-03   1337288
  1.010703e+00   3.735174e+00   1.840912e-03   3.214923e-03   1351304
  1.017077e+00   3.780183e+00   1.841769e-03   3.226620e-03   1369026
  1.023461e+00   3.813159e+00   1.843478e-03   3.232485e-03   1388456
  1.029842e+00   3.859965e+00   1.840406e-03   3.262568e-03   1402700
  1.036211e+00   3.879445e+00   1.837802e-03   3.265171e-03   1418282
  1.042587e+00   3.929006e+00   1.843596e-03   3.280426e-03   1440272
  1.048964e+00   3.960792e+00   1.838705e-03   3.280697e-03   1454114
  1.055341e+00   4.000131e+00   1.842603e-03   3.299690e-03   1475480
  1.061720e+00   4.040380e+00   1.840520e-03   3.311174e-03   1490936
  1.068091e+00   4.077677e+00   1.838519e-03   3.326429e-03   1507826
  1.074472e+00   4.115031e+00   1.844275e-03   3.325691e-03   1530764
  1.080850e+00   4.155835e+00   1.839052e-03   3.350304e-03   1543424
  1.087222e+00   4.193150e+00   1.841688e-03   3.353195e-03   1564946
  1.093594e+00   4.229732e+00   1.835875e-03   3.367778e-03   1578536
  1.099970e+00   4.263786e+00   1.845670e-03   3.361262e-03   1604882
  1.106358e+00   4.309186e+00   1.842454e-03   3.384989e-03   1621304
  1.112736e+00   4.341384e+00   1.839545e-03   3.394551e-03   1637024
  1.119103e+00   4.389202e+00   1.837794e-03   3.415934e-03   1654134
  1.125480e+00   4.432354e+00   1.844256e-03   3.421515e-03   1679168
  1.131864e+00   4.473303e+00   1.841903e-03   3.437099e-03   1695944
  1.138235e+00   4.504428e+00   1.836568e-03   3.446967e-03   1710602
  1.144612e+00   4.545677e+00   1.844777e-03   3.453207e-03   1737056
  1.150994e+00   4.573770e+00   1.840390e-03   3.457501e-03   1752602
  1.157370e+00   4.620989e+00   1.839227e-03   3.470827e-03   1772024
  1.163752e+00   4.658364e+00   1.844090e-03   3.475310e-03   1795364
  1.170126e+00   4.696130e+00   1.836467e-03   3.492620e-03   1807634
  1.176490e+00   4.744640e+00   1.836183e-03   3.509976e-03   1827608
  1.182859e+00   4.781966e+00   1.840789e-03   3.510351e-03   1850984
  1.189240e+00   4.824390e+00   1.844107e-03   3.528270e-03   1874618
  1.195619e+00   4.855483e+00   1.838445e-03   3.531076e-03   1889504
  1.202001e+00   4.892194e+00   1.845373e-03   3.528798e-03   1916870
  1.208383e+00   4.933678e+00   1.838254e-03   3.552526e-03   1929728
  1.214760e+00   4.973166e+00   1.843674e-03   3.557780e-03   1955408
  1.221131e+00   5.015471e+00   1.834427e-03   3.580754e-03   1966842
  1.227503e+00   5.051747e+00   1.843005e-03   3.578286e-03   1996640
  1.233886e+00   5.092059e+00   1.842690e-03   3.584721e-03   2016392
  1.240265e+00   5.142167e+00   1.839730e-03   3.604400e-03   2034722
  1.246641e+00   5.192402e+00   1.840813e-03   3.622689e-03   2056460
  1.253014e+00   5.206437e+00   1.838931e-03   3.612737e-03   2075186
  1.259388e+00   5.247811e+00   1.840566e-03   3.616772e-03   2099096
  1.265761e+00   5.289877e+00   1.837910e-03   3.640266e-03   2116832
  1.272138e+00   5.329263e+00   1.844119e-03   3.638284e-03   2145146
  1.278526e+00   5.378246e+00   1.844128e-03   3.657081e-03   2166776
  1.284904e+00   5.414697e+00   1.838822e-03   3.662410e-03   2181848
  1.291273e+00   5.451763e+00   1.838785e-03   3.679245e-03   2203766
  1.297646e+00   5.482112e+00   1.840619e-03   3.672195e-03   2227664
  1.304025e+00   5.537504e+00   1.842381e-03   3.688841e-03   2252138
  1.310403e+00   5.571100e+00   1.839825e-03   3.702858e-03   2271152
  1.316777e+00   5.616829e+00   1.840536e-03   3.709984e-03   2293256
  1.323154e+00   5.652110e+00   1.842085e-03   3.717540e-03   2318130
  1.329536e+00   5.680186e+00   1.841956e-03   3.716851e-03   2340824
  1.335910e+00   5.736673e+00   1.838342e-03   3.732822e-03   2357990
  1.342292e+00   5.764892e+00   1.846396e-03   3.725545e-03   2391176
  1.348671e+00   5.796915e+00   1.837209e-03   3.744918e-03   2401808
  1.355040e+00   5.841710e+00   1.840258e-03   3.747282e-03   2428442
  1.361418e+00   5.885885e+00   1.842645e-03   3.764683e-03   2454752
  1.367798e+00   5.924487e+00   1.841270e-03   3.766995e-03   2475872
  1.374172e+00   5.963421e+00   1.838763e-03   3.778515e-03   2495822
  1.380543e+00   6.009521e+00   1.839940e-03   3.785531e-03   2520248
  1.386922e+00   6.049516e+00   1.844043e-03   3.788825e-03   2549186
  1.393299e+00   6.079975e+00   1.837661e-03   3.794219e-03   2564768
  1.399672e+00   6.120357e+00   1.841284e-03   3.807480e-03   2592968
  1.406054e+00   6.166266e+00   1.843378e-03   3.809897e-03   2619818
  1.412431e+00   6.203250e+00   1.838027e-03   3.820123e-03   2636384
  1.418803e+00   6.241957e+00   1.840293e-03   3.828065e-03   2662220
  1.425180e+00   6.288050e+00   1.842524e-03   3.828601e-03   2689770
  1.431560e+00   6.326007e+00   1.840994e-03   3.842845e-03   2712296
  1.437933e+00   6.368804e+00   1.838431e-03   3.851193e-03   2732618
  1.444312e+00   6.392681e+00   1.843932e-03   3.841036e-03   2765264
  1.450695e+00   6.437390e+00   1.840894e-03   3.858897e-03   2784824
  1.457066e+00   6.477273e+00   1.837138e-03   3.864978e-03   2804162
  1.463445e+00   6.520545e+00   1.844971e-03   3.864414e-03   2840612
  1.469825e+00   6.550360e+00   1.839130e-03   3.878776e-03   2855576
  1.476198e+00   6.588558e+00   1.840533e-03   3.878958e-03   2883458
  1.482571e+00   6.630279e+00   1.838217e-03   3.892490e-03   2904128
  1.488946e+00   6.664887e+00   1.843378e-03   3.890715e-03   2937026
  1.495325e+00   6.712349e+00   1.839218e-03   3.905879e-03   2956976
  1.501703e+00   6.749481e+00   1.841967e-03   3.910723e-03   2986472
  1.508082e+00   6.787645e+00   1.840166e-03   3.917927e-03   3008918
  1.514460e+00   6.817034e+00   1.841773e-03   3.916400e-03   3036752
  1.520836e+00   6.857564e+00   1.839884e-03   3.919079e-03   3058376
  1.527209e+00   6.894535e+00   1.839616e-03   3.930867e-03   3084210
  1.533583e+00   6.931693e+00   1.840948e-03   3.925597e-03   3111848
  1.539960e+00   6.974536e+00   1.841348e-03   3.938759e-03   3138890
  1.546339e+00   7.009764e+00   1.840626e-03   3.941978e-03   3164516
  1.552719e+00   7.054457e+00   1.842638e-03   3.946916e-03   3192656
  1.559097e+00   7.081637e+00   1.840555e-03   3.955718e-03   3215618
  1.565473e+00   7.119464e+00   1.840732e-03   3.957094e-03   3242888
  1.571846e+00   7.155530e+00   1.839114e-03   3.961113e-03   3265448
  1.578224e+00   7.194067e+00   1.843575e-03   3.967594e-03   3300842
  1.584604e+00   7.233293e+00   1.839884e-03   3.972975e-03   3321008
  1.590977e+00   7.261451e+00   1.839336e-03   3.972310e-03   3346406
  1.597352e+00   7.304060e+00   1.841596e-03   3.972437e-03   3377984
  1.603728e+00   7.340233e+00   1.839551e-03   3.984234e-03   3400352
  1.610103e+00   7.372975e+00   1.841321e-03   3.980692e-03   3431450
  1.616483e+00   7.415447e+00   1.841519e-03   3.990904e-03   3458768
  1.622859e+00   7.460196e+00   1.841183e-03   4.000962e-03   3484088
  1.629231e+00   7.493080e+00   1.838425e-03   4.000981e-03   3508218
  1.635610e+00   7.532278e+00   1.843946e-03   4.002104e-03   3545924
  1.641992e+00   7.570539e+00   1.841053e-03   4.006840e-03   3567530
  1.648369e+00   7.600706e+00   1.840183e-03   4.011614e-03   3595040
  1.654744e+00   7.635581e+00   1.840167e-03   4.019010e-03   3621176
  1.661115e+00   7.669296e+00   1.839521e-03   4.020460e-03   3647738
  1.667490e+00   7.705366e+00   1.841438e-03   4.025764e-03   3680480
  1.673870e+00   7.744646e+00   1.842082e-03   4.022305e-03   3709712
  1.680248e+00   7.776061e+00   1.840008e-03   4.027914e-03   3734702
  1.686623e+00   7.801549e+00   1.840362e-03   4.023032e-03   3762776
  1.692996e+00   7.837161e+00   1.839854e-03   4.025732e-03   3790514
  1.699371e+00   7.872755e+00   1.839908e-03   4.028143e-03   3820352
  1.705752e+00   7.915159e+00   1.844068e-03   4.036371e-03   3856016
  1.712131e+00   7.938143e+00   1.839690e-03   4.039406e-03   3876818
  1.718506e+00   7.975018e+00   1.839874e-03   4.032553e-03   3906332
  1.724882e+00   8.016534e+00   1.841963e-03   4.039269e-03   3938216
  1.731260e+00   8.041685e+00   1.840685e-03   4.039949e-03   3966354
  1.737636e+00   8.088256e+00   1.839695e-03   4.050944e-03   3993536
  1.744011e+00   8.104991e+00   1.840344e-03   4.043259e-03   4024034
  1.750392e+00   8.150387e+00   1.843071e-03   4.048224e-03   4060208
  1.756773e+00   8.178054e+00   1.840812e-03   4.047599e-03   4083632
  1.763145e+00   8.215738e+00   1.837811e-03   4.056146e-03   4107062
  1.769521e+00   8.254818e+00   1.842771e-03   4.054727e-03   4148072
  1.775893e+00   8.281261e+00   1.836707e-03   4.060030e-03   4163456
  1.782267e+00   8.312571e+00   1.842476e-03   4.052349e-03   4207994
  1.788652e+00   8.349272e+00   1.843367e-03   4.055233e-03   4239152
  1.795029e+00   8.367950e+00   1.839132e-03   4.058519e-03   4259426
  1.801407e+00   8.414296e+00   1.842524e-03   4.058908e-03   4299488
  1.807788e+00   8.443253e+00   1.840660e-03   4.063267e-03   4323692
  1.814162e+00   8.471530e+00   1.840093e-03   4.062510e-03   4353242
  1.820541e+00   8.502085e+00   1.841694e-03   4.061794e-03   4388792
