# power spectrum of zeta (dimensionless)
# redshift z=96.079122
# k              Pk             sigma(k)       sigma(Pk)      count
  5.011399e-03   5.820267e-22   7.667927e-04   1.147432e-22   18
  1.037418e-02   1.696976e-20   1.725047e-03   1.962732e-21   128
  1.616528e-02   7.553064e-20   1.646572e-03   4.266300e-21   314
  2.269071e-02   1.818361e-19   1.954354e-03   7.048694e-21   728
  2.897169e-02   3.498504e-19   1.717946e-03   1.174920e-20   1016
  3.518826e-02   4.876787e-19   1.880676e-03   1.202776e-20   1682
  4.169479e-02   7.316478e-19   1.831736e-03   1.541666e-20   2300
  4.790974e-02   9.255998e-19   1.770731e-03   1.739110e-20   2906
  5.429022e-02   1.238656e-18   1.892687e-03   2.042373e-20   4040
  6.068098e-02   1.581602e-18   1.775551e-03   2.388631e-20   4712
  6.698900e-02   2.009695e-18   1.857705e-03   2.584015e-20   6002
  7.346135e-02   2.372297e-18   1.857594e-03   2.818335e-20   7256
  7.977379e-02   2.817262e-18   1.772571e-03   3.179689e-20   8120
  8.609019e-02   3.100295e-18   1.864951e-03   3.110318e-20   9950
  9.253636e-02   3.427220e-18   1.853578e-03   3.168539e-20   11384
  9.885187e-02   3.655380e-18   1.809244e-03   3.284487e-20   12666
  1.052712e-01   4.018434e-18   1.889168e-03   3.221509e-20   15104
  1.117654e-01   4.418607e-18   1.850532e-03   3.467761e-20   16616
  1.180754e-01   4.996876e-18   1.799489e-03   3.751431e-20   18026
  1.244216e-01   5.459437e-18   1.853405e-03   3.741085e-20   20696
  1.308065e-01   5.910619e-18   1.827918e-03   3.976669e-20   22436
  1.371558e-01   6.489210e-18   1.845873e-03   4.145919e-20   24962
  1.435394e-01   6.809470e-18   1.831283e-03   4.086031e-20   27176
  1.499133e-01   7.041297e-18   1.847268e-03   4.097846e-20   29810
  1.562775e-01   7.343094e-18   1.828450e-03   4.148623e-20   32120
  1.626776e-01   7.607178e-18   1.865216e-03   4.052214e-20   35432
  1.690383e-01   8.098958e-18   1.814577e-03   4.204039e-20   37238
  1.754019e-01   8.546128e-18   1.856016e-03   4.217776e-20   41072
  1.817869e-01   8.964359e-18   1.834293e-03   4.344179e-20   43472
  1.881565e-01   9.572859e-18   1.848176e-03   4.426519e-20   47042
  1.945298e-01   1.020249e-17   1.829223e-03   4.621250e-20   49712
  2.008693e-01   1.057121e-17   1.840592e-03   4.626704e-20   53226
  2.072637e-01   1.072082e-17   1.853753e-03   4.464330e-20   57320
  2.136558e-01   1.112366e-17   1.831629e-03   4.558787e-20   60092
  2.200056e-01   1.146513e-17   1.839426e-03   4.546905e-20   63914
  2.263950e-01   1.172156e-17   1.849752e-03   4.471758e-20   68192
  2.327751e-01   1.211611e-17   1.833934e-03   4.543304e-20   71336
  2.391397e-01   1.248355e-17   1.845607e-03   4.534850e-20   75818
  2.455297e-01   1.292847e-17   1.844019e-03   4.588209e-20   79880
  2.518964e-01   1.346167e-17   1.834462e-03   4.644828e-20   83642
  2.582661e-01   1.398282e-17   1.840779e-03   4.693646e-20   88316
  2.646730e-01   1.433230e-17   1.859422e-03   4.701847e-20   93488
  2.710484e-01   1.465218e-17   1.827184e-03   4.714245e-20   96458
  2.773871e-01   1.497801e-17   1.829038e-03   4.771139e-20   101264
  2.837816e-01   1.523781e-17   1.862873e-03   4.632198e-20   107696
  2.901819e-01   1.544270e-17   1.837217e-03   4.633095e-20   111170
  2.965233e-01   1.601033e-17   1.822285e-03   4.707744e-20   115232
  3.028941e-01   1.632004e-17   1.855375e-03   4.668704e-20   122310
  3.093019e-01   1.667519e-17   1.843350e-03   4.682117e-20   126944
  3.156739e-01   1.717390e-17   1.828600e-03   4.744099e-20   131192
  3.220432e-01   1.756950e-17   1.844535e-03   4.764101e-20   137618
  3.284234e-01   1.793464e-17   1.836674e-03   4.746931e-20   142448
  3.347979e-01   1.815852e-17   1.844704e-03   4.700854e-20   148520
  3.411627e-01   1.853287e-17   1.831436e-03   4.770013e-20   153254
  3.475446e-01   1.890157e-17   1.852010e-03   4.731683e-20   160760
  3.539284e-01   1.896459e-17   1.835751e-03   4.633822e-20   165290
  3.603019e-01   1.944687e-17   1.840148e-03   4.698570e-20   171992
  3.666828e-01   1.978077e-17   1.840217e-03   4.709763e-20   177800
  3.730569e-01   2.018489e-17   1.843032e-03   4.719299e-20   184322
  3.794439e-01   2.051545e-17   1.841595e-03   4.717347e-20   190832
  3.858239e-01   2.081313e-17   1.839260e-03   4.727740e-20   196772
  3.921872e-01   2.124644e-17   1.836453e-03   4.730422e-20   202970
  3.985536e-01   2.162101e-17   1.839266e-03   4.721370e-20   210056
  4.049173e-01   2.194083e-17   1.832832e-03   4.718641e-20   216210
  4.112896e-01   2.222040e-17   1.841640e-03   4.682976e-20   224168
  4.176700e-01   2.236943e-17   1.840761e-03   4.679229e-20   230792
  4.240565e-01   2.284028e-17   1.846256e-03   4.685329e-20   238778
  4.304312e-01   2.296715e-17   1.831772e-03   4.644818e-20   243956
  4.367939e-01   2.343513e-17   1.845141e-03   4.660930e-20   252680
  4.431746e-01   2.370532e-17   1.842020e-03   4.654141e-20   260066
  4.495713e-01   2.404657e-17   1.849294e-03   4.638588e-20   268712
  4.559494e-01   2.444298e-17   1.834336e-03   4.668594e-20   274034
  4.623270e-01   2.451039e-17   1.847366e-03   4.608565e-20   283904
  4.687088e-01   2.487345e-17   1.837425e-03   4.612010e-20   290048
  4.750707e-01   2.509237e-17   1.836659e-03   4.617907e-20   297950
  4.814434e-01   2.544894e-17   1.842026e-03   4.625489e-20   306968
  4.878269e-01   2.591968e-17   1.843240e-03   4.627196e-20   315320
  4.942006e-01   2.594625e-17   1.835899e-03   4.568126e-20   322346
  5.005701e-01   2.631501e-17   1.842589e-03   4.560809e-20   331664
  5.069538e-01   2.653827e-17   1.844896e-03   4.537578e-20   340818
  5.133346e-01   2.701626e-17   1.837322e-03   4.578500e-20   348164
  5.197083e-01   2.722067e-17   1.843548e-03   4.552566e-20   357584
  5.260929e-01   2.747439e-17   1.846059e-03   4.524126e-20   367106
  5.324635e-01   2.775686e-17   1.832285e-03   4.531815e-20   373376
  5.388350e-01   2.795644e-17   1.848023e-03   4.491572e-20   385376
  5.452233e-01   2.829896e-17   1.842356e-03   4.509744e-20   393650
  5.516038e-01   2.846984e-17   1.840588e-03   4.481355e-20   402704
  5.579656e-01   2.874031e-17   1.830970e-03   4.492844e-20   409910
  5.643320e-01   2.908730e-17   1.843407e-03   4.495196e-20   422024
  5.707212e-01   2.924959e-17   1.846526e-03   4.438480e-20   432176
  5.771022e-01   2.959242e-17   1.837404e-03   4.472494e-20   440066
  5.834769e-01   2.990807e-17   1.841263e-03   4.447778e-20   450680
  5.898365e-01   3.008643e-17   1.831084e-03   4.449492e-20   457856
  5.962115e-01   3.046440e-17   1.848347e-03   4.413802e-20   472538
  6.026013e-01   3.075591e-17   1.839689e-03   4.446819e-20   480140
  6.089752e-01   3.089064e-17   1.841279e-03   4.418833e-20   490842
  6.153517e-01   3.121641e-17   1.838382e-03   4.414390e-20   500744
  6.217295e-01   3.142920e-17   1.842392e-03   4.395605e-20   511856
  6.281145e-01   3.168067e-17   1.844734e-03   4.384038e-20   523202
  6.344991e-01   3.192695e-17   1.840396e-03   4.385093e-20   532688
  6.408638e-01   3.219638e-17   1.834541e-03   4.404281e-20   541520
  6.472341e-01   3.241621e-17   1.842653e-03   4.362806e-20   555110
  6.536136e-01   3.269592e-17   1.839126e-03   4.345970e-20   564944
  6.599884e-01   3.278596e-17   1.839832e-03   4.331878e-20   576434
  6.663740e-01   3.307176e-17   1.844405e-03   4.315821e-20   588848
  6.727501e-01   3.336866e-17   1.838623e-03   4.322976e-20   597704
  6.791236e-01   3.353472e-17   1.842386e-03   4.296306e-20   610946
  6.855006e-01   3.385256e-17   1.837794e-03   4.300863e-20   620852
  6.918722e-01   3.403546e-17   1.841901e-03   4.287392e-20   633530
  6.982524e-01   3.423063e-17   1.841844e-03   4.270604e-20   645704
  7.046316e-01   3.447415e-17   1.840565e-03   4.270915e-20   656744
  7.110074e-01   3.477937e-17   1.841941e-03   4.249932e-20   669162
  7.173906e-01   3.502334e-17   1.843286e-03   4.239165e-20   681992
  7.237681e-01   3.517319e-17   1.838959e-03   4.242159e-20   692360
  7.301485e-01   3.538047e-17   1.844364e-03   4.219707e-20   707006
  7.365206e-01   3.560795e-17   1.834135e-03   4.217485e-20   714944
  7.428835e-01   3.596552e-17   1.841775e-03   4.207994e-20   730346
  7.492606e-01   3.611498e-17   1.838962e-03   4.201532e-20   742616
  7.556415e-01   3.636056e-17   1.843530e-03   4.179447e-20   756536
  7.620128e-01   3.647193e-17   1.836595e-03   4.173317e-20   766418
  7.683917e-01   3.667818e-17   1.845753e-03   4.145146e-20   783392
  7.747614e-01   3.692386e-17   1.833632e-03   4.166593e-20   790412
  7.811334e-01   3.714337e-17   1.848120e-03   4.128681e-20   810314
  7.875277e-01   3.738802e-17   1.843702e-03   4.123600e-20   821960
  7.938987e-01   3.764831e-17   1.834976e-03   4.124465e-20   831266
  8.002712e-01   3.769253e-17   1.843706e-03   4.096612e-20   848960
  8.066557e-01   3.793592e-17   1.842629e-03   4.093656e-20   861488
  8.130204e-01   3.815112e-17   1.833334e-03   4.100592e-20   871194
  8.193985e-01   3.835344e-17   1.847247e-03   4.059661e-20   891788
  8.257796e-01   3.859191e-17   1.838008e-03   4.070255e-20   900416
  8.321422e-01   3.887407e-17   1.836250e-03   4.061685e-20   914306
  8.385264e-01   3.894773e-17   1.847988e-03   4.033169e-20   933992
  8.449011e-01   3.912612e-17   1.834294e-03   4.038254e-20   940826
  8.512701e-01   3.942730e-17   1.842364e-03   4.042181e-20   960224
  8.576621e-01   3.956798e-17   1.846556e-03   4.006856e-20   976316
  8.640381e-01   3.967570e-17   1.835724e-03   3.990463e-20   985010
  8.704114e-01   3.994221e-17   1.843336e-03   3.990734e-20   1004024
  8.767898e-01   3.999713e-17   1.839706e-03   3.982029e-20   1016288
  8.831639e-01   4.037406e-17   1.840690e-03   3.974740e-20   1032290
  8.895470e-01   4.049715e-17   1.843156e-03   3.959042e-20   1048640
  8.959130e-01   4.058546e-17   1.831919e-03   3.950431e-20   1057250
  9.022937e-01   4.096038e-17   1.849588e-03   3.938829e-20   1083140
  9.086870e-01   4.114226e-17   1.840763e-03   3.946435e-20   1092248
  9.150555e-01   4.120072e-17   1.837510e-03   3.922251e-20   1105914
  9.214310e-01   4.137797e-17   1.841822e-03   3.898466e-20   1124744
  9.278120e-01   4.161671e-17   1.841202e-03   3.904751e-20   1139120
  9.341841e-01   4.183473e-17   1.838536e-03   3.889108e-20   1153490
  9.405650e-01   4.193345e-17   1.844187e-03   3.876370e-20   1172936
  9.469357e-01   4.218625e-17   1.834491e-03   3.886841e-20   1182158
  9.533110e-01   4.226671e-17   1.846126e-03   3.836854e-20   1206392
  9.596894e-01   4.241923e-17   1.835525e-03   3.844976e-20   1215224
  9.660641e-01   4.261988e-17   1.844936e-03   3.825395e-20   1237874
  9.724505e-01   4.284775e-17   1.841050e-03   3.831516e-20   1251800
  9.788233e-01   4.291815e-17   1.838619e-03   3.812376e-20   1265792
  9.851993e-01   4.326804e-17   1.843109e-03   3.823093e-20   1286306
  9.915793e-01   4.333296e-17   1.838809e-03   3.811202e-20   1299764
  9.979438e-01   4.354490e-17   1.836769e-03   3.796660e-20   1314554
  1.004319e+00   4.359724e-17   1.843595e-03   3.773523e-20   1337288
  1.010703e+00   4.381384e-17   1.840912e-03   3.764461e-20   1351304
  1.017077e+00   4.394478e-17   1.841769e-03   3.739898e-20   1369026
  1.023461e+00   4.409361e-17   1.843478e-03   3.740749e-20   1388456
  1.029842e+00   4.432413e-17   1.840406e-03   3.753823e-20   1402700
  1.036211e+00   4.444453e-17   1.837802e-03   3.736813e-20   1418282
  1.042587e+00   4.463384e-17   1.843596e-03   3.720923e-20   1440272
  1.048964e+00   4.478746e-17   1.838705e-03   3.716179e-20   1454114
  1.055341e+00   4.488242e-17   1.842603e-03   3.694183e-20   1475480
  1.061720e+00   4.512568e-17   1.840520e-03   3.693507e-20   1490936
  1.068091e+00   4.516905e-17   1.838519e-03   3.678932e-20   1507826
  1.074472e+00   4.537495e-17   1.844275e-03   3.677807e-20   1530764
  1.080850e+00   4.546323e-17   1.839052e-03   3.654759e-20   1543424
  1.087222e+00   4.573224e-17   1.841688e-03   3.656115e-20   1564946
  1.093594e+00   4.586252e-17   1.835875e-03   3.644398e-20   1578536
  1.099970e+00   4.598946e-17   1.845670e-03   3.626186e-20   1604882
  1.106358e+00   4.614908e-17   1.842454e-03   3.624908e-20   1621304
  1.112736e+00   4.622587e-17   1.839545e-03   3.623308e-20   1637024
  1.119103e+00   4.643280e-17   1.837794e-03   3.618044e-20   1654134
  1.125480e+00   4.656438e-17   1.844256e-03   3.597673e-20   1679168
  1.131864e+00   4.672065e-17   1.841903e-03   3.586238e-20   1695944
  1.138235e+00   4.690773e-17   1.836568e-03   3.585957e-20   1710602
  1.144612e+00   4.704728e-17   1.844777e-03   3.574961e-20   1737056
  1.150994e+00   4.717813e-17   1.840390e-03   3.565990e-20   1752602
  1.157370e+00   4.724408e-17   1.839227e-03   3.551349e-20   1772024
  1.163752e+00   4.741628e-17   1.844090e-03   3.544753e-20   1795364
  1.170126e+00   4.754224e-17   1.836467e-03   3.540641e-20   1807634
  1.176490e+00   4.770736e-17   1.836183e-03   3.529287e-20   1827608
  1.182859e+00   4.780269e-17   1.840789e-03   3.513708e-20   1850984
  1.189240e+00   4.789917e-17   1.844107e-03   3.495701e-20   1874618
  1.195619e+00   4.806850e-17   1.838445e-03   3.498286e-20   1889504
  1.202001e+00   4.822657e-17   1.845373e-03   3.485716e-20   1916870
  1.208383e+00   4.828801e-17   1.838254e-03   3.477403e-20   1929728
  1.214760e+00   4.853758e-17   1.843674e-03   3.471671e-20   1955408
  1.221131e+00   4.860237e-17   1.834427e-03   3.461499e-20   1966842
  1.227503e+00   4.870728e-17   1.843005e-03   3.448258e-20   1996640
  1.233886e+00   4.887971e-17   1.842690e-03   3.450867e-20   2016392
  1.240265e+00   4.901799e-17   1.839730e-03   3.431403e-20   2034722
  1.246641e+00   4.902925e-17   1.840813e-03   3.418481e-20   2056460
  1.253014e+00   4.921178e-17   1.838931e-03   3.417710e-20   2075186
  1.259388e+00   4.933052e-17   1.840566e-03   3.409334e-20   2099096
  1.265761e+00   4.950418e-17   1.837910e-03   3.404444e-20   2116832
  1.272138e+00   4.955435e-17   1.844119e-03   3.382856e-20   2145146
  1.278526e+00   4.962915e-17   1.844128e-03   3.371374e-20   2166776
  1.284904e+00   4.982329e-17   1.838822e-03   3.370543e-20   2181848
  1.291273e+00   4.994670e-17   1.838785e-03   3.368187e-20   2203766
  1.297646e+00   5.002222e-17   1.840619e-03   3.346863e-20   2227664
  1.304025e+00   5.015687e-17   1.842381e-03   3.343859e-20   2252138
  1.310403e+00   5.019834e-17   1.839825e-03   3.333467e-20   2271152
  1.316777e+00   5.037019e-17   1.840536e-03   3.323710e-20   2293256
  1.323154e+00   5.050836e-17   1.842085e-03   3.325890e-20   2318130
  1.329536e+00   5.066387e-17   1.841956e-03   3.315232e-20   2340824
  1.335910e+00   5.068973e-17   1.838342e-03   3.304611e-20   2357990
  1.342292e+00   5.082402e-17   1.846396e-03   3.287255e-20   2391176
  1.348671e+00   5.097459e-17   1.837209e-03   3.286707e-20   2401808
  1.355040e+00   5.111109e-17   1.840258e-03   3.278407e-20   2428442
  1.361418e+00   5.116696e-17   1.842645e-03   3.264276e-20   2454752
  1.367798e+00   5.119696e-17   1.841270e-03   3.255690e-20   2475872
  1.374172e+00   5.131579e-17   1.838763e-03   3.249944e-20   2495822
  1.380543e+00   5.141552e-17   1.839940e-03   3.236823e-20   2520248
  1.386922e+00   5.148479e-17   1.844043e-03   3.229240e-20   2549186
  1.393299e+00   5.166528e-17   1.837661e-03   3.223376e-20   2564768
  1.399672e+00   5.181441e-17   1.841284e-03   3.222311e-20   2592968
  1.406054e+00   5.183035e-17   1.843378e-03   3.208656e-20   2619818
  1.412431e+00   5.202545e-17   1.838027e-03   3.209620e-20   2636384
  1.418803e+00   5.202657e-17   1.840293e-03   3.193461e-20   2662220
  1.425180e+00   5.217133e-17   1.842524e-03   3.182272e-20   2689770
  1.431560e+00   5.227844e-17   1.840994e-03   3.174636e-20   2712296
  1.437933e+00   5.232917e-17   1.838431e-03   3.166399e-20   2732618
  1.444312e+00   5.239618e-17   1.843932e-03   3.148900e-20   2765264
  1.450695e+00   5.260301e-17   1.840894e-03   3.151515e-20   2784824
  1.457066e+00   5.262526e-17   1.837138e-03   3.139412e-20   2804162
  1.463445e+00   5.279617e-17   1.844971e-03   3.131340e-20   2840612
  1.469825e+00   5.285732e-17   1.839130e-03   3.130313e-20   2855576
  1.476198e+00   5.286126e-17   1.840533e-03   3.113120e-20   2883458
  1.482571e+00   5.304679e-17   1.838217e-03   3.114143e-20   2904128
  1.488946e+00   5.313006e-17   1.843378e-03   3.102101e-20   2937026
  1.495325e+00   5.321071e-17   1.839218e-03   3.094101e-20   2956976
  1.501703e+00   5.326191e-17   1.841967e-03   3.081411e-20   2986472
  1.508082e+00   5.341617e-17   1.840166e-03   3.078878e-20   3008918
  1.514460e+00   5.341861e-17   1.841773e-03   3.065047e-20   3036752
  1.520836e+00   5.358425e-17   1.839884e-03   3.063893e-20   3058376
  1.527209e+00   5.370227e-17   1.839616e-03   3.057481e-20   3084210
  1.533583e+00   5.373331e-17   1.840948e-03   3.044110e-20   3111848
  1.539960e+00   5.382757e-17   1.841348e-03   3.037014e-20   3138890
  1.546339e+00   5.389961e-17   1.840626e-03   3.034152e-20   3164516
  1.552719e+00   5.397854e-17   1.842638e-03   3.018637e-20   3192656
  1.559097e+00   5.402375e-17   1.840555e-03   3.011576e-20   3215618
  1.565473e+00   5.413441e-17   1.840732e-03   3.007004e-20   3242888
  1.571846e+00   5.422921e-17   1.839114e-03   2.997925e-20   3265448
  1.578224e+00   5.429489e-17   1.843575e-03   2.989737e-20   3300842
  1.584604e+00   5.432125e-17   1.839884e-03   2.982131e-20   3321008
  1.590977e+00   5.439584e-17   1.839336e-03   2.976014e-20   3346406
  1.597352e+00   5.447002e-17   1.841596e-03   2.963287e-20   3377984
  1.603728e+00   5.456068e-17   1.839551e-03   2.955156e-20   3400352
  1.610103e+00   5.472075e-17   1.841321e-03   2.954125e-20   3431450
  1.616483e+00   5.470688e-17   1.841519e-03   2.939494e-20   3458768
  1.622859e+00   5.478132e-17   1.841183e-03   2.934752e-20   3484088
  1.629231e+00   5.493817e-17   1.838425e-03   2.933524e-20   3508218
  1.635610e+00   5.497219e-17   1.843946e-03   2.922039e-20   3545924
  1.641992e+00   5.499799e-17   1.841053e-03   2.914324e-20   3567530
  1.648369e+00   5.510879e-17   1.840183e-03   2.906487e-20   3595040
  1.654744e+00   5.521400e-17   1.840167e-03   2.905283e-20   3621176
  1.661115e+00   5.520902e-17   1.839521e-03   2.888604e-20   3647738
  1.667490e+00   5.530794e-17   1.841438e-03   2.880899e-20   3680480
  1.673870e+00   5.533971e-17   1.842082e-03   2.874651e-20   3709712
  1.680248e+00   5.543148e-17   1.840008e-03   2.869030e-20   3734702
  1.686623e+00   5.544948e-17   1.840362e-03   2.857502e-20   3762776
  1.692996e+00   5.551365e-17   1.839854e-03   2.855438e-20   3790514
  1.699371e+00   5.559106e-17   1.839908e-03   2.844593e-20   3820352
  1.705752e+00   5.565819e-17   1.844068e-03   2.834902e-20   3856016
  1.712131e+00   5.574050e-17   1.839690e-03   2.835379e-20   3876818
  1.718506e+00   5.584093e-17   1.839874e-03   2.824467e-20   3906332
  1.724882e+00   5.588975e-17   1.841963e-03   2.816620e-20   3938216
  1.731260e+00   5.585808e-17   1.840685e-03   2.805429e-20   3966354
  1.737636e+00   5.593133e-17   1.839695e-03   2.799157e-20   3993536
  1.744011e+00   5.598866e-17   1.840344e-03   2.794572e-20   4024034
  1.750392e+00   5.612954e-17   1.843071e-03   2.786115e-20   4060208
  1.756773e+00   5.605859e-17   1.840812e-03   2.774336e-20   4083632
  1.763145e+00   5.626049e-17   1.837811e-03   2.778937e-20   4107062
  1.769521e+00   5.621229e-17   1.842771e-03   2.760012e-20   4148072
  1.775893e+00   5.627722e-17   1.836707e-03   2.759296e-20   4163456
  1.782267e+00   5.632366e-17   1.842476e-03   2.744843e-20   4207994
  1.788652e+00   5.636529e-17   1.843367e-03   2.739426e-20   4239152
  1.795029e+00   5.646075e-17   1.839132e-03   2.738187e-20   4259426
  1.801407e+00   5.648415e-17   1.842524e-03   2.725128e-20   4299488
  1.807788e+00   5.657795e-17   1.840660e-03   2.720096e-20   4323692
  1.814162e+00   5.657435e-17   1.840093e-03   2.714802e-20   4353242
  1.820541e+00   5.669453e-17   1.841694e-03   2.706102e-20   4388792
