# power spectrum of delta_kessence
# redshift z=9.863284
# k              Pk             sigma(k)       sigma(Pk)      count
  5.011399e-03   6.160284e-10   7.667927e-04   1.170235e-10   18
  1.037418e-02   1.451410e-08   1.725047e-03   1.664902e-09   128
  1.616528e-02   6.253518e-08   1.646572e-03   3.523578e-09   314
  2.269071e-02   1.481255e-07   1.954354e-03   5.734273e-09   728
  2.897169e-02   2.821150e-07   1.717946e-03   9.472764e-09   1016
  3.518826e-02   3.907479e-07   1.880676e-03   9.639199e-09   1682
  4.169479e-02   5.848045e-07   1.831736e-03   1.231270e-08   2300
  4.790974e-02   7.420073e-07   1.770731e-03   1.394126e-08   2906
  5.429022e-02   9.974778e-07   1.892687e-03   1.644024e-08   4040
  6.068098e-02   1.282371e-06   1.775551e-03   1.935886e-08   4712
  6.698900e-02   1.633093e-06   1.857705e-03   2.101880e-08   6002
  7.346135e-02   1.927457e-06   1.857594e-03   2.290935e-08   7256
  7.977379e-02   2.281392e-06   1.772571e-03   2.576581e-08   8120
  8.609019e-02   2.494978e-06   1.864951e-03   2.502897e-08   9950
  9.253636e-02   2.741910e-06   1.853578e-03   2.535255e-08   11384
  9.885187e-02   2.913663e-06   1.809244e-03   2.619181e-08   12666
  1.052712e-01   3.203172e-06   1.889168e-03   2.569075e-08   15104
  1.117654e-01   3.529950e-06   1.850532e-03   2.771837e-08   16616
  1.180754e-01   4.007190e-06   1.799489e-03   3.007847e-08   18026
  1.244216e-01   4.391842e-06   1.853405e-03   3.009875e-08   20696
  1.308065e-01   4.761041e-06   1.827918e-03   3.203592e-08   22436
  1.371558e-01   5.217477e-06   1.845873e-03   3.329521e-08   24962
  1.435394e-01   5.457465e-06   1.831283e-03   3.272778e-08   27176
  1.499133e-01   5.616123e-06   1.847268e-03   3.268033e-08   29810
  1.562775e-01   5.832067e-06   1.828450e-03   3.293090e-08   32120
  1.626776e-01   6.029155e-06   1.865216e-03   3.212289e-08   35432
  1.690383e-01   6.408380e-06   1.814577e-03   3.322199e-08   37238
  1.754019e-01   6.768886e-06   1.856016e-03   3.342480e-08   41072
  1.817869e-01   7.113151e-06   1.834293e-03   3.447346e-08   43472
  1.881565e-01   7.607159e-06   1.848176e-03   3.517339e-08   47042
  1.945298e-01   8.097060e-06   1.829223e-03   3.672593e-08   49712
  2.008693e-01   8.388869e-06   1.840592e-03   3.667651e-08   53226
  2.072637e-01   8.473312e-06   1.853753e-03   3.529679e-08   57320
  2.136558e-01   8.759696e-06   1.831629e-03   3.589163e-08   60092
  2.200056e-01   8.999479e-06   1.839426e-03   3.569893e-08   63914
  2.263950e-01   9.177679e-06   1.849752e-03   3.499742e-08   68192
  2.327751e-01   9.468663e-06   1.833934e-03   3.548984e-08   71336
  2.391397e-01   9.755604e-06   1.845607e-03   3.543781e-08   75818
  2.455297e-01   1.010513e-05   1.844019e-03   3.588886e-08   79880
  2.518964e-01   1.050814e-05   1.834462e-03   3.626186e-08   83642
  2.582661e-01   1.091633e-05   1.840779e-03   3.668158e-08   88316
  2.646730e-01   1.116272e-05   1.859422e-03   3.663331e-08   93488
  2.710484e-01   1.137789e-05   1.827184e-03   3.665439e-08   96458
  2.773871e-01   1.159224e-05   1.829038e-03   3.689335e-08   101264
  2.837816e-01   1.175303e-05   1.862873e-03   3.575358e-08   107696
  2.901819e-01   1.189559e-05   1.837217e-03   3.571731e-08   111170
  2.965233e-01   1.229297e-05   1.822285e-03   3.620103e-08   115232
  3.028941e-01   1.251826e-05   1.855375e-03   3.579447e-08   122310
  3.093019e-01   1.276470e-05   1.843350e-03   3.585486e-08   126944
  3.156739e-01   1.312422e-05   1.828600e-03   3.627435e-08   131192
  3.220432e-01   1.339253e-05   1.844535e-03   3.631565e-08   137618
  3.284234e-01   1.365930e-05   1.836674e-03   3.614270e-08   142448
  3.347979e-01   1.378306e-05   1.844704e-03   3.569418e-08   148520
  3.411627e-01   1.401172e-05   1.831436e-03   3.606612e-08   153254
  3.475446e-01   1.425765e-05   1.852010e-03   3.565963e-08   160760
  3.539284e-01   1.427436e-05   1.835751e-03   3.489004e-08   165290
  3.603019e-01   1.461111e-05   1.840148e-03   3.529575e-08   171992
  3.666828e-01   1.481307e-05   1.840217e-03   3.529471e-08   177800
  3.730569e-01   1.507459e-05   1.843032e-03   3.519642e-08   184322
  3.794439e-01   1.528605e-05   1.841595e-03   3.513216e-08   190832
  3.858239e-01   1.546833e-05   1.839260e-03   3.513430e-08   196772
  3.921872e-01   1.576516e-05   1.836453e-03   3.509371e-08   202970
  3.985536e-01   1.598130e-05   1.839266e-03   3.494450e-08   210056
  4.049173e-01   1.617495e-05   1.832832e-03   3.482817e-08   216210
  4.112896e-01   1.631097e-05   1.841640e-03   3.438717e-08   224168
  4.176700e-01   1.636763e-05   1.840761e-03   3.423973e-08   230792
  4.240565e-01   1.667744e-05   1.846256e-03   3.422391e-08   238778
  4.304312e-01   1.671290e-05   1.831772e-03   3.379832e-08   243956
  4.367939e-01   1.699733e-05   1.845141e-03   3.382123e-08   252680
  4.431746e-01   1.716616e-05   1.842020e-03   3.374076e-08   260066
  4.495713e-01   1.735046e-05   1.849294e-03   3.348213e-08   268712
  4.559494e-01   1.755957e-05   1.834336e-03   3.352945e-08   274034
  4.623270e-01   1.756672e-05   1.847366e-03   3.301987e-08   283904
  4.687088e-01   1.775847e-05   1.837425e-03   3.296478e-08   290048
  4.750707e-01   1.784914e-05   1.836659e-03   3.285199e-08   297950
  4.814434e-01   1.804901e-05   1.842026e-03   3.281036e-08   306968
  4.878269e-01   1.832249e-05   1.843240e-03   3.272632e-08   315320
  4.942006e-01   1.827272e-05   1.835899e-03   3.219686e-08   322346
  5.005701e-01   1.846951e-05   1.842589e-03   3.201599e-08   331664
  5.069538e-01   1.855809e-05   1.844896e-03   3.174117e-08   340818
  5.133346e-01   1.882237e-05   1.837322e-03   3.190499e-08   348164
  5.197083e-01   1.890616e-05   1.843548e-03   3.161973e-08   357584
  5.260929e-01   1.902715e-05   1.846059e-03   3.133995e-08   367106
  5.324635e-01   1.910410e-05   1.832285e-03   3.117642e-08   373376
  5.388350e-01   1.918252e-05   1.848023e-03   3.083615e-08   385376
  5.452233e-01   1.934335e-05   1.842356e-03   3.078677e-08   393650
  5.516038e-01   1.938414e-05   1.840588e-03   3.053186e-08   402704
  5.579656e-01   1.948277e-05   1.830970e-03   3.042606e-08   409910
  5.643320e-01   1.965101e-05   1.843407e-03   3.034501e-08   422024
  5.707212e-01   1.967552e-05   1.846526e-03   2.988163e-08   432176
  5.771022e-01   1.981090e-05   1.837404e-03   2.993706e-08   440066
  5.834769e-01   1.991892e-05   1.841263e-03   2.965999e-08   450680
  5.898365e-01   1.998935e-05   1.831084e-03   2.954687e-08   457856
  5.962115e-01   2.013299e-05   1.848347e-03   2.921005e-08   472538
  6.026013e-01   2.026000e-05   1.839689e-03   2.925899e-08   480140
  6.089752e-01   2.024957e-05   1.841279e-03   2.897125e-08   490842
  6.153517e-01   2.038745e-05   1.838382e-03   2.882927e-08   500744
  6.217295e-01   2.041094e-05   1.842392e-03   2.851871e-08   511856
  6.281145e-01   2.050852e-05   1.844734e-03   2.837586e-08   523202
  6.344991e-01   2.058296e-05   1.840396e-03   2.829441e-08   532688
  6.408638e-01   2.065145e-05   1.834541e-03   2.819450e-08   541520
  6.472341e-01   2.070645e-05   1.842653e-03   2.787297e-08   555110
  6.536136e-01   2.075717e-05   1.839126e-03   2.755225e-08   564944
  6.599884e-01   2.072703e-05   1.839832e-03   2.739917e-08   576434
  6.663740e-01   2.081194e-05   1.844405e-03   2.715607e-08   588848
  6.727501e-01   2.088244e-05   1.838623e-03   2.704704e-08   597704
  6.791236e-01   2.093595e-05   1.842386e-03   2.686689e-08   610946
  6.855006e-01   2.100745e-05   1.837794e-03   2.668047e-08   620852
  6.918722e-01   2.100271e-05   1.841901e-03   2.647773e-08   633530
  6.982524e-01   2.102395e-05   1.841844e-03   2.622371e-08   645704
  7.046316e-01   2.108295e-05   1.840565e-03   2.609543e-08   656744
  7.110074e-01   2.115393e-05   1.841941e-03   2.588757e-08   669162
  7.173906e-01   2.120016e-05   1.843286e-03   2.565569e-08   681992
  7.237681e-01   2.117654e-05   1.838959e-03   2.555193e-08   692360
  7.301485e-01   2.120159e-05   1.844364e-03   2.527354e-08   707006
  7.365206e-01   2.121483e-05   1.834135e-03   2.509467e-08   714944
  7.428835e-01   2.133057e-05   1.841775e-03   2.496896e-08   730346
  7.492606e-01   2.131229e-05   1.838962e-03   2.480974e-08   742616
  7.556415e-01   2.132132e-05   1.843530e-03   2.452442e-08   756536
  7.620128e-01   2.128890e-05   1.836595e-03   2.437019e-08   766418
  7.683917e-01   2.128310e-05   1.845753e-03   2.403403e-08   783392
  7.747614e-01   2.132562e-05   1.833632e-03   2.403481e-08   790412
  7.811334e-01   2.131806e-05   1.848120e-03   2.368268e-08   810314
  7.875277e-01   2.134410e-05   1.843702e-03   2.356151e-08   821960
  7.938987e-01   2.138022e-05   1.834976e-03   2.344206e-08   831266
  8.002712e-01   2.127417e-05   1.843706e-03   2.313389e-08   848960
  8.066557e-01   2.129768e-05   1.842629e-03   2.300515e-08   861488
  8.130204e-01   2.130437e-05   1.833334e-03   2.293068e-08   871194
  8.193985e-01   2.127517e-05   1.847247e-03   2.251848e-08   891788
  8.257796e-01   2.126306e-05   1.838008e-03   2.243193e-08   900416
  8.321422e-01   2.130756e-05   1.836250e-03   2.226915e-08   914306
  8.385264e-01   2.125469e-05   1.847988e-03   2.201359e-08   933992
  8.449011e-01   2.122140e-05   1.834294e-03   2.191197e-08   940826
  8.512701e-01   2.125363e-05   1.842364e-03   2.177108e-08   960224
  8.576621e-01   2.119784e-05   1.846556e-03   2.148885e-08   976316
  8.640381e-01   2.116001e-05   1.835724e-03   2.132623e-08   985010
  8.704114e-01   2.114536e-05   1.843336e-03   2.113691e-08   1004024
  8.767898e-01   2.106604e-05   1.839706e-03   2.100651e-08   1016288
  8.831639e-01   2.111692e-05   1.840690e-03   2.081396e-08   1032290
  8.895470e-01   2.104324e-05   1.843156e-03   2.059696e-08   1048640
  8.959130e-01   2.096919e-05   1.831919e-03   2.039819e-08   1057250
  9.022937e-01   2.101973e-05   1.849588e-03   2.020838e-08   1083140
  9.086870e-01   2.097848e-05   1.840763e-03   2.016455e-08   1092248
  9.150555e-01   2.089045e-05   1.837510e-03   1.991739e-08   1105914
  9.214310e-01   2.083605e-05   1.841822e-03   1.966525e-08   1124744
  9.278120e-01   2.084267e-05   1.841202e-03   1.957212e-08   1139120
  9.341841e-01   2.080255e-05   1.838536e-03   1.937746e-08   1153490
  9.405650e-01   2.073995e-05   1.844187e-03   1.920984e-08   1172936
  9.469357e-01   2.071233e-05   1.834491e-03   1.912385e-08   1182158
  9.533110e-01   2.062885e-05   1.846126e-03   1.876803e-08   1206392
  9.596894e-01   2.053612e-05   1.835525e-03   1.862636e-08   1215224
  9.660641e-01   2.052508e-05   1.844936e-03   1.845261e-08   1237874
  9.724505e-01   2.048359e-05   1.841050e-03   1.834739e-08   1251800
  9.788233e-01   2.037170e-05   1.838619e-03   1.815095e-08   1265792
  9.851993e-01   2.039915e-05   1.843109e-03   1.806317e-08   1286306
  9.915793e-01   2.029848e-05   1.838809e-03   1.786302e-08   1299764
  9.979438e-01   2.025397e-05   1.836769e-03   1.770325e-08   1314554
  1.004319e+00   2.016769e-05   1.843595e-03   1.747274e-08   1337288
  1.010703e+00   2.012769e-05   1.840912e-03   1.732986e-08   1351304
  1.017077e+00   2.003792e-05   1.841769e-03   1.711196e-08   1369026
  1.023461e+00   1.998167e-05   1.843478e-03   1.700126e-08   1388456
  1.029842e+00   1.993294e-05   1.840406e-03   1.691021e-08   1402700
  1.036211e+00   1.985472e-05   1.837802e-03   1.673178e-08   1418282
  1.042587e+00   1.980258e-05   1.843596e-03   1.654870e-08   1440272
  1.048964e+00   1.972473e-05   1.838705e-03   1.639059e-08   1454114
  1.055341e+00   1.963400e-05   1.842603e-03   1.618927e-08   1475480
  1.061720e+00   1.960205e-05   1.840520e-03   1.606521e-08   1490936
  1.068091e+00   1.946652e-05   1.838519e-03   1.589019e-08   1507826
  1.074472e+00   1.945031e-05   1.844275e-03   1.579433e-08   1530764
  1.080850e+00   1.930298e-05   1.839052e-03   1.556462e-08   1543424
  1.087222e+00   1.928593e-05   1.841688e-03   1.547020e-08   1564946
  1.093594e+00   1.921082e-05   1.835875e-03   1.530193e-08   1578536
  1.099970e+00   1.911538e-05   1.845670e-03   1.512649e-08   1604882
  1.106358e+00   1.902742e-05   1.842454e-03   1.498779e-08   1621304
  1.112736e+00   1.893342e-05   1.839545e-03   1.488317e-08   1637024
  1.119103e+00   1.890310e-05   1.837794e-03   1.474510e-08   1654134
  1.125480e+00   1.880694e-05   1.844256e-03   1.456266e-08   1679168
  1.131864e+00   1.870143e-05   1.841903e-03   1.439115e-08   1695944
  1.138235e+00   1.862742e-05   1.836568e-03   1.429038e-08   1710602
  1.144612e+00   1.855771e-05   1.844777e-03   1.412844e-08   1737056
  1.150994e+00   1.848006e-05   1.840390e-03   1.401068e-08   1752602
  1.157370e+00   1.834770e-05   1.839227e-03   1.383143e-08   1772024
  1.163752e+00   1.828532e-05   1.844090e-03   1.370787e-08   1795364
  1.170126e+00   1.818367e-05   1.836467e-03   1.358187e-08   1807634
  1.176490e+00   1.810197e-05   1.836183e-03   1.343427e-08   1827608
  1.182859e+00   1.802249e-05   1.840789e-03   1.331459e-08   1850984
  1.189240e+00   1.791929e-05   1.844107e-03   1.313015e-08   1874618
  1.195619e+00   1.783826e-05   1.838445e-03   1.302485e-08   1889504
  1.202001e+00   1.775014e-05   1.845373e-03   1.287637e-08   1916870
  1.208383e+00   1.761743e-05   1.838254e-03   1.274070e-08   1929728
  1.214760e+00   1.758071e-05   1.843674e-03   1.262440e-08   1955408
  1.221131e+00   1.745783e-05   1.834427e-03   1.248300e-08   1966842
  1.227503e+00   1.734615e-05   1.843005e-03   1.233267e-08   1996640
  1.233886e+00   1.726220e-05   1.842690e-03   1.223006e-08   2016392
  1.240265e+00   1.719075e-05   1.839730e-03   1.209603e-08   2034722
  1.246641e+00   1.706693e-05   1.840813e-03   1.195795e-08   2056460
  1.253014e+00   1.698187e-05   1.838931e-03   1.186337e-08   2075186
  1.259388e+00   1.688190e-05   1.840566e-03   1.173183e-08   2099096
  1.265761e+00   1.679666e-05   1.837910e-03   1.161625e-08   2116832
  1.272138e+00   1.669227e-05   1.844119e-03   1.146371e-08   2145146
  1.278526e+00   1.658546e-05   1.844128e-03   1.132457e-08   2166776
  1.284904e+00   1.649098e-05   1.838822e-03   1.123190e-08   2181848
  1.291273e+00   1.640656e-05   1.838785e-03   1.112320e-08   2203766
  1.297646e+00   1.630863e-05   1.840619e-03   1.099286e-08   2227664
  1.304025e+00   1.619408e-05   1.842381e-03   1.086255e-08   2252138
  1.310403e+00   1.609537e-05   1.839825e-03   1.075896e-08   2271152
  1.316777e+00   1.601704e-05   1.840536e-03   1.063278e-08   2293256
  1.323154e+00   1.590647e-05   1.842085e-03   1.052853e-08   2318130
  1.329536e+00   1.583420e-05   1.841956e-03   1.042762e-08   2340824
  1.335910e+00   1.571595e-05   1.838342e-03   1.030799e-08   2357990
  1.342292e+00   1.561674e-05   1.846396e-03   1.017693e-08   2391176
  1.348671e+00   1.553162e-05   1.837209e-03   1.009258e-08   2401808
  1.355040e+00   1.544214e-05   1.840258e-03   9.980459e-09   2428442
  1.361418e+00   1.531431e-05   1.842645e-03   9.845760e-09   2454752
  1.367798e+00   1.519962e-05   1.841270e-03   9.745789e-09   2475872
  1.374172e+00   1.510949e-05   1.838763e-03   9.647781e-09   2495822
  1.380543e+00   1.501089e-05   1.839940e-03   9.546921e-09   2520248
  1.386922e+00   1.489882e-05   1.844043e-03   9.426615e-09   2549186
  1.393299e+00   1.482895e-05   1.837661e-03   9.328545e-09   2564768
  1.399672e+00   1.472896e-05   1.841284e-03   9.239997e-09   2592968
  1.406054e+00   1.461334e-05   1.843378e-03   9.132780e-09   2619818
  1.412431e+00   1.452888e-05   1.838027e-03   9.041354e-09   2636384
  1.418803e+00   1.441539e-05   1.840293e-03   8.934672e-09   2662220
  1.425180e+00   1.432629e-05   1.842524e-03   8.822762e-09   2689770
  1.431560e+00   1.421573e-05   1.840994e-03   8.720627e-09   2712296
  1.437933e+00   1.411801e-05   1.838431e-03   8.624189e-09   2732618
  1.444312e+00   1.401548e-05   1.843932e-03   8.510076e-09   2765264
  1.450695e+00   1.393026e-05   1.840894e-03   8.440965e-09   2784824
  1.457066e+00   1.382682e-05   1.837138e-03   8.343692e-09   2804162
  1.463445e+00   1.373858e-05   1.844971e-03   8.241804e-09   2840612
  1.469825e+00   1.365054e-05   1.839130e-03   8.166739e-09   2855576
  1.476198e+00   1.352595e-05   1.840533e-03   8.058083e-09   2883458
  1.482571e+00   1.343278e-05   1.838217e-03   7.977097e-09   2904128
  1.488946e+00   1.334529e-05   1.843378e-03   7.882025e-09   2937026
  1.495325e+00   1.324063e-05   1.839218e-03   7.783736e-09   2956976
  1.501703e+00   1.313444e-05   1.841967e-03   7.696991e-09   2986472
  1.508082e+00   1.305639e-05   1.840166e-03   7.627859e-09   3008918
  1.514460e+00   1.294520e-05   1.841773e-03   7.535892e-09   3036752
  1.520836e+00   1.285621e-05   1.839884e-03   7.448627e-09   3058376
  1.527209e+00   1.277868e-05   1.839616e-03   7.384759e-09   3084210
  1.533583e+00   1.265651e-05   1.840948e-03   7.275258e-09   3111848
  1.539960e+00   1.256051e-05   1.841348e-03   7.194423e-09   3138890
  1.546339e+00   1.248221e-05   1.840626e-03   7.129354e-09   3164516
  1.552719e+00   1.237929e-05   1.842638e-03   7.032486e-09   3192656
  1.559097e+00   1.228115e-05   1.840555e-03   6.950167e-09   3215618
  1.565473e+00   1.218307e-05   1.840732e-03   6.876674e-09   3242888
  1.571846e+00   1.208699e-05   1.839114e-03   6.797637e-09   3265448
  1.578224e+00   1.200899e-05   1.843575e-03   6.722265e-09   3300842
  1.584604e+00   1.190085e-05   1.839884e-03   6.645217e-09   3321008
  1.590977e+00   1.179213e-05   1.839336e-03   6.561832e-09   3346406
  1.597352e+00   1.171243e-05   1.841596e-03   6.488682e-09   3377984
  1.603728e+00   1.160181e-05   1.839551e-03   6.405593e-09   3400352
  1.610103e+00   1.154910e-05   1.841321e-03   6.352007e-09   3431450
  1.616483e+00   1.142897e-05   1.841519e-03   6.263227e-09   3458768
  1.622859e+00   1.134755e-05   1.841183e-03   6.200091e-09   3484088
  1.629231e+00   1.127082e-05   1.838425e-03   6.137300e-09   3508218
  1.635610e+00   1.116228e-05   1.843946e-03   6.049632e-09   3545924
  1.641992e+00   1.107721e-05   1.841053e-03   5.990807e-09   3567530
  1.648369e+00   1.099247e-05   1.840183e-03   5.922193e-09   3595040
  1.654744e+00   1.089852e-05   1.840167e-03   5.853174e-09   3621176
  1.661115e+00   1.080965e-05   1.839521e-03   5.778929e-09   3647738
  1.667490e+00   1.072084e-05   1.841438e-03   5.707732e-09   3680480
  1.673870e+00   1.063147e-05   1.842082e-03   5.647304e-09   3709712
  1.680248e+00   1.054418e-05   1.840008e-03   5.584791e-09   3734702
  1.686623e+00   1.046260e-05   1.840362e-03   5.515827e-09   3762776
  1.692996e+00   1.037003e-05   1.839854e-03   5.457983e-09   3790514
  1.699371e+00   1.026946e-05   1.839908e-03   5.372238e-09   3820352
  1.705752e+00   1.019764e-05   1.844068e-03   5.326578e-09   3856016
  1.712131e+00   1.011957e-05   1.839690e-03   5.275615e-09   3876818
  1.718506e+00   1.002996e-05   1.839874e-03   5.212408e-09   3906332
  1.724882e+00   9.944437e-06   1.841963e-03   5.145787e-09   3938216
  1.731260e+00   9.859782e-06   1.840685e-03   5.084104e-09   3966354
  1.737636e+00   9.756455e-06   1.839695e-03   5.021551e-09   3993536
  1.744011e+00   9.688308e-06   1.840344e-03   4.971973e-09   4024034
  1.750392e+00   9.608380e-06   1.843071e-03   4.909659e-09   4060208
  1.756773e+00   9.522120e-06   1.840812e-03   4.854051e-09   4083632
  1.763145e+00   9.451169e-06   1.837811e-03   4.802562e-09   4107062
  1.769521e+00   9.355894e-06   1.842771e-03   4.727977e-09   4148072
  1.775893e+00   9.278557e-06   1.836707e-03   4.687762e-09   4163456
  1.782267e+00   9.202890e-06   1.842476e-03   4.630323e-09   4207994
  1.788652e+00   9.114178e-06   1.843367e-03   4.572354e-09   4239152
  1.795029e+00   9.050326e-06   1.839132e-03   4.533211e-09   4259426
  1.801407e+00   8.973468e-06   1.842524e-03   4.473711e-09   4299488
  1.807788e+00   8.886047e-06   1.840660e-03   4.416677e-09   4323692
  1.814162e+00   8.799608e-06   1.840093e-03   4.369474e-09   4353242
  1.820541e+00   8.742919e-06   1.841694e-03   4.318998e-09   4388792
