# power spectrum of delta_kessence
# redshift z=5.988045
# k              Pk             sigma(k)       sigma(Pk)      count
  5.011399e-03   1.335434e-09   7.667927e-04   2.562838e-10   18
  1.037418e-02   3.398290e-08   1.725047e-03   3.911227e-09   128
  1.616528e-02   1.484452e-07   1.646572e-03   8.372443e-09   314
  2.269071e-02   3.535107e-07   1.954354e-03   1.369355e-08   728
  2.897169e-02   6.744244e-07   1.717946e-03   2.264718e-08   1016
  3.518826e-02   9.350205e-07   1.880676e-03   2.307385e-08   1682
  4.169479e-02   1.399859e-06   1.831736e-03   2.945687e-08   2300
  4.790974e-02   1.777105e-06   1.770731e-03   3.338640e-08   2906
  5.429022e-02   2.387696e-06   1.892687e-03   3.933666e-08   4040
  6.068098e-02   3.072342e-06   1.775551e-03   4.636412e-08   4712
  6.698900e-02   3.910000e-06   1.857705e-03   5.035686e-08   6002
  7.346135e-02   4.614644e-06   1.857594e-03   5.486814e-08   7256
  7.977379e-02   5.462579e-06   1.772571e-03   6.172138e-08   8120
  8.609019e-02   5.970371e-06   1.864951e-03   5.989089e-08   9950
  9.253636e-02   6.559793e-06   1.853578e-03   6.066238e-08   11384
  9.885187e-02   6.968201e-06   1.809244e-03   6.265604e-08   12666
  1.052712e-01   7.661229e-06   1.889168e-03   6.146260e-08   15104
  1.117654e-01   8.437370e-06   1.850532e-03   6.626513e-08   16616
  1.180754e-01   9.574783e-06   1.799489e-03   7.185793e-08   18026
  1.244216e-01   1.048740e-05   1.853405e-03   7.187633e-08   20696
  1.308065e-01   1.136386e-05   1.827918e-03   7.646282e-08   22436
  1.371558e-01   1.244462e-05   1.845873e-03   7.935346e-08   24962
  1.435394e-01   1.301492e-05   1.831283e-03   7.802678e-08   27176
  1.499133e-01   1.338548e-05   1.847268e-03   7.788491e-08   29810
  1.562775e-01   1.389582e-05   1.828450e-03   7.843519e-08   32120
  1.626776e-01   1.436697e-05   1.865216e-03   7.655710e-08   35432
  1.690383e-01   1.525404e-05   1.814577e-03   7.900946e-08   37238
  1.754019e-01   1.610149e-05   1.856016e-03   7.952976e-08   41072
  1.817869e-01   1.691228e-05   1.834293e-03   8.196588e-08   43472
  1.881565e-01   1.807483e-05   1.848176e-03   8.357576e-08   47042
  1.945298e-01   1.921122e-05   1.829223e-03   8.720743e-08   49712
  2.008693e-01   1.990778e-05   1.840592e-03   8.697262e-08   53226
  2.072637e-01   2.008349e-05   1.853753e-03   8.368367e-08   57320
  2.136558e-01   2.074713e-05   1.831629e-03   8.500343e-08   60092
  2.200056e-01   2.130525e-05   1.839426e-03   8.452416e-08   63914
  2.263950e-01   2.171128e-05   1.849752e-03   8.277617e-08   68192
  2.327751e-01   2.237957e-05   1.833934e-03   8.383327e-08   71336
  2.391397e-01   2.304516e-05   1.845607e-03   8.370681e-08   75818
  2.455297e-01   2.385616e-05   1.844019e-03   8.476892e-08   79880
  2.518964e-01   2.476722e-05   1.834462e-03   8.546656e-08   83642
  2.582661e-01   2.572411e-05   1.840779e-03   8.651093e-08   88316
  2.646730e-01   2.627606e-05   1.859422e-03   8.625063e-08   93488
  2.710484e-01   2.675399e-05   1.827184e-03   8.625688e-08   96458
  2.773871e-01   2.722714e-05   1.829038e-03   8.660320e-08   101264
  2.837816e-01   2.757248e-05   1.862873e-03   8.390055e-08   107696
  2.901819e-01   2.790574e-05   1.837217e-03   8.384609e-08   111170
  2.965233e-01   2.878843e-05   1.822285e-03   8.486383e-08   115232
  3.028941e-01   2.929555e-05   1.855375e-03   8.373875e-08   122310
  3.093019e-01   2.982780e-05   1.843350e-03   8.379427e-08   126944
  3.156739e-01   3.062610e-05   1.828600e-03   8.467010e-08   131192
  3.220432e-01   3.120506e-05   1.844535e-03   8.461722e-08   137618
  3.284234e-01   3.181581e-05   1.836674e-03   8.417701e-08   142448
  3.347979e-01   3.206292e-05   1.844704e-03   8.304900e-08   148520
  3.411627e-01   3.253297e-05   1.831436e-03   8.371703e-08   153254
  3.475446e-01   3.307254e-05   1.852010e-03   8.268008e-08   160760
  3.539284e-01   3.309575e-05   1.835751e-03   8.095501e-08   165290
  3.603019e-01   3.385149e-05   1.840148e-03   8.175220e-08   171992
  3.666828e-01   3.425086e-05   1.840217e-03   8.163939e-08   177800
  3.730569e-01   3.480393e-05   1.843032e-03   8.121147e-08   184322
  3.794439e-01   3.525767e-05   1.841595e-03   8.102994e-08   190832
  3.858239e-01   3.561550e-05   1.839260e-03   8.088877e-08   196772
  3.921872e-01   3.627585e-05   1.836453e-03   8.074712e-08   202970
  3.985536e-01   3.670461e-05   1.839266e-03   8.032244e-08   210056
  4.049173e-01   3.709287e-05   1.832832e-03   7.993431e-08   216210
  4.112896e-01   3.733402e-05   1.841640e-03   7.872686e-08   224168
  4.176700e-01   3.740708e-05   1.840761e-03   7.825704e-08   230792
  4.240565e-01   3.809054e-05   1.846256e-03   7.820253e-08   238778
  4.304312e-01   3.811160e-05   1.831772e-03   7.703062e-08   243956
  4.367939e-01   3.869239e-05   1.845141e-03   7.699824e-08   252680
  4.431746e-01   3.904457e-05   1.842020e-03   7.676466e-08   260066
  4.495713e-01   3.937683e-05   1.849294e-03   7.599608e-08   268712
  4.559494e-01   3.975703e-05   1.834336e-03   7.592459e-08   274034
  4.623270e-01   3.974993e-05   1.847366e-03   7.471204e-08   283904
  4.687088e-01   4.010840e-05   1.837425e-03   7.452767e-08   290048
  4.750707e-01   4.025086e-05   1.836659e-03   7.408716e-08   297950
  4.814434e-01   4.063105e-05   1.842026e-03   7.382569e-08   306968
  4.878269e-01   4.119056e-05   1.843240e-03   7.357731e-08   315320
  4.942006e-01   4.099942e-05   1.835899e-03   7.227969e-08   322346
  5.005701e-01   4.137459e-05   1.842589e-03   7.172876e-08   331664
  5.069538e-01   4.150485e-05   1.844896e-03   7.100649e-08   340818
  5.133346e-01   4.200359e-05   1.837322e-03   7.122756e-08   348164
  5.197083e-01   4.214416e-05   1.843548e-03   7.053092e-08   357584
  5.260929e-01   4.235528e-05   1.846059e-03   6.977649e-08   367106
  5.324635e-01   4.238378e-05   1.832285e-03   6.916009e-08   373376
  5.388350e-01   4.250339e-05   1.848023e-03   6.833452e-08   385376
  5.452233e-01   4.277157e-05   1.842356e-03   6.801865e-08   393650
  5.516038e-01   4.280538e-05   1.840588e-03   6.744275e-08   402704
  5.579656e-01   4.291798e-05   1.830970e-03   6.697762e-08   409910
  5.643320e-01   4.321096e-05   1.843407e-03   6.666120e-08   422024
  5.707212e-01   4.316766e-05   1.846526e-03   6.561468e-08   432176
  5.771022e-01   4.338395e-05   1.837404e-03   6.551986e-08   440066
  5.834769e-01   4.349103e-05   1.841263e-03   6.480563e-08   450680
  5.898365e-01   4.361471e-05   1.831084e-03   6.444175e-08   457856
  5.962115e-01   4.378817e-05   1.848347e-03   6.361225e-08   472538
  6.026013e-01   4.399788e-05   1.839689e-03   6.347998e-08   480140
  6.089752e-01   4.388368e-05   1.841279e-03   6.278688e-08   490842
  6.153517e-01   4.410321e-05   1.838382e-03   6.237561e-08   500744
  6.217295e-01   4.403005e-05   1.842392e-03   6.150015e-08   511856
  6.281145e-01   4.417688e-05   1.844734e-03   6.108851e-08   523202
  6.344991e-01   4.425663e-05   1.840396e-03   6.085722e-08   532688
  6.408638e-01   4.429103e-05   1.834541e-03   6.036783e-08   541520
  6.472341e-01   4.431932e-05   1.842653e-03   5.966780e-08   555110
  6.536136e-01   4.428612e-05   1.839126e-03   5.872771e-08   564944
  6.599884e-01   4.417078e-05   1.839832e-03   5.840620e-08   576434
  6.663740e-01   4.423867e-05   1.844405e-03   5.776213e-08   588848
  6.727501e-01   4.425782e-05   1.838623e-03   5.733615e-08   597704
  6.791236e-01   4.432890e-05   1.842386e-03   5.695342e-08   610946
  6.855006e-01   4.435720e-05   1.837794e-03   5.631905e-08   620852
  6.918722e-01   4.421850e-05   1.841901e-03   5.580331e-08   633530
  6.982524e-01   4.417612e-05   1.841844e-03   5.507843e-08   645704
  7.046316e-01   4.421311e-05   1.840565e-03   5.464195e-08   656744
  7.110074e-01   4.421200e-05   1.841941e-03   5.420741e-08   669162
  7.173906e-01   4.421493e-05   1.843286e-03   5.347326e-08   681992
  7.237681e-01   4.404992e-05   1.838959e-03   5.316308e-08   692360
  7.301485e-01   4.403543e-05   1.844364e-03   5.244989e-08   707006
  7.365206e-01   4.394179e-05   1.834135e-03   5.192400e-08   714944
  7.428835e-01   4.406508e-05   1.841775e-03   5.158107e-08   730346
  7.492606e-01   4.393151e-05   1.838962e-03   5.112979e-08   742616
  7.556415e-01   4.382039e-05   1.843530e-03   5.044108e-08   756536
  7.620128e-01   4.368441e-05   1.836595e-03   4.996568e-08   766418
  7.683917e-01   4.354844e-05   1.845753e-03   4.915227e-08   783392
  7.747614e-01   4.354683e-05   1.833632e-03   4.903577e-08   790412
  7.811334e-01   4.339224e-05   1.848120e-03   4.818639e-08   810314
  7.875277e-01   4.331868e-05   1.843702e-03   4.783297e-08   821960
  7.938987e-01   4.328936e-05   1.834976e-03   4.750944e-08   831266
  8.002712e-01   4.295948e-05   1.843706e-03   4.672466e-08   848960
  8.066557e-01   4.290194e-05   1.842629e-03   4.637747e-08   861488
  8.130204e-01   4.280518e-05   1.833334e-03   4.608574e-08   871194
  8.193985e-01   4.261768e-05   1.847247e-03   4.510710e-08   891788
  8.257796e-01   4.245937e-05   1.838008e-03   4.478794e-08   900416
  8.321422e-01   4.244343e-05   1.836250e-03   4.439023e-08   914306
  8.385264e-01   4.225634e-05   1.847988e-03   4.376608e-08   933992
  8.449011e-01   4.207258e-05   1.834294e-03   4.346149e-08   940826
  8.512701e-01   4.200898e-05   1.842364e-03   4.300638e-08   960224
  8.576621e-01   4.178071e-05   1.846556e-03   4.241318e-08   976316
  8.640381e-01   4.162929e-05   1.835724e-03   4.200183e-08   985010
  8.704114e-01   4.149083e-05   1.843336e-03   4.150688e-08   1004024
  8.767898e-01   4.123345e-05   1.839706e-03   4.112231e-08   1016288
  8.831639e-01   4.118282e-05   1.840690e-03   4.063346e-08   1032290
  8.895470e-01   4.091967e-05   1.843156e-03   4.007987e-08   1048640
  8.959130e-01   4.068644e-05   1.831919e-03   3.954594e-08   1057250
  9.022937e-01   4.063366e-05   1.849588e-03   3.911601e-08   1083140
  9.086870e-01   4.043576e-05   1.840763e-03   3.890029e-08   1092248
  9.150555e-01   4.017926e-05   1.837510e-03   3.833671e-08   1105914
  9.214310e-01   3.995705e-05   1.841822e-03   3.775616e-08   1124744
  9.278120e-01   3.986280e-05   1.841202e-03   3.744227e-08   1139120
  9.341841e-01   3.964057e-05   1.838536e-03   3.696961e-08   1153490
  9.405650e-01   3.944966e-05   1.844187e-03   3.659386e-08   1172936
  9.469357e-01   3.928143e-05   1.834491e-03   3.632643e-08   1182158
  9.533110e-01   3.902023e-05   1.846126e-03   3.555940e-08   1206392
  9.596894e-01   3.871508e-05   1.835525e-03   3.515797e-08   1215224
  9.660641e-01   3.859964e-05   1.844936e-03   3.472530e-08   1237874
  9.724505e-01   3.838503e-05   1.841050e-03   3.438632e-08   1251800
  9.788233e-01   3.806217e-05   1.838619e-03   3.396611e-08   1265792
  9.851993e-01   3.796304e-05   1.843109e-03   3.362817e-08   1286306
  9.915793e-01   3.769568e-05   1.838809e-03   3.318799e-08   1299764
  9.979438e-01   3.750639e-05   1.836769e-03   3.281778e-08   1314554
  1.004319e+00   3.724423e-05   1.843595e-03   3.230682e-08   1337288
  1.010703e+00   3.708869e-05   1.840912e-03   3.197860e-08   1351304
  1.017077e+00   3.679679e-05   1.841769e-03   3.148870e-08   1369026
  1.023461e+00   3.659571e-05   1.843478e-03   3.116323e-08   1388456
  1.029842e+00   3.638456e-05   1.840406e-03   3.091032e-08   1402700
  1.036211e+00   3.614095e-05   1.837802e-03   3.047795e-08   1418282
  1.042587e+00   3.596455e-05   1.843596e-03   3.009065e-08   1440272
  1.048964e+00   3.567507e-05   1.838705e-03   2.968435e-08   1454114
  1.055341e+00   3.543107e-05   1.842603e-03   2.928178e-08   1475480
  1.061720e+00   3.528468e-05   1.840520e-03   2.896522e-08   1490936
  1.068091e+00   3.491744e-05   1.838519e-03   2.852852e-08   1507826
  1.074472e+00   3.479906e-05   1.844275e-03   2.827780e-08   1530764
  1.080850e+00   3.441676e-05   1.839052e-03   2.780910e-08   1543424
  1.087222e+00   3.426539e-05   1.841688e-03   2.752858e-08   1564946
  1.093594e+00   3.403905e-05   1.835875e-03   2.719718e-08   1578536
  1.099970e+00   3.375109e-05   1.845670e-03   2.676230e-08   1604882
  1.106358e+00   3.348053e-05   1.842454e-03   2.642002e-08   1621304
  1.112736e+00   3.325510e-05   1.839545e-03   2.616892e-08   1637024
  1.119103e+00   3.311657e-05   1.837794e-03   2.584748e-08   1654134
  1.125480e+00   3.283721e-05   1.844256e-03   2.548107e-08   1679168
  1.131864e+00   3.252664e-05   1.841903e-03   2.508119e-08   1695944
  1.138235e+00   3.230040e-05   1.836568e-03   2.484621e-08   1710602
  1.144612e+00   3.209073e-05   1.844777e-03   2.446389e-08   1737056
  1.150994e+00   3.186456e-05   1.840390e-03   2.420364e-08   1752602
  1.157370e+00   3.154779e-05   1.839227e-03   2.381206e-08   1772024
  1.163752e+00   3.133883e-05   1.844090e-03   2.352763e-08   1795364
  1.170126e+00   3.107019e-05   1.836467e-03   2.326020e-08   1807634
  1.176490e+00   3.082150e-05   1.836183e-03   2.292943e-08   1827608
  1.182859e+00   3.063037e-05   1.840789e-03   2.269564e-08   1850984
  1.189240e+00   3.035160e-05   1.844107e-03   2.231018e-08   1874618
  1.195619e+00   3.013156e-05   1.838445e-03   2.205707e-08   1889504
  1.202001e+00   2.989336e-05   1.845373e-03   2.174931e-08   1916870
  1.208383e+00   2.956577e-05   1.838254e-03   2.143282e-08   1929728
  1.214760e+00   2.940707e-05   1.843674e-03   2.115315e-08   1955408
  1.221131e+00   2.911730e-05   1.834427e-03   2.088867e-08   1966842
  1.227503e+00   2.883097e-05   1.843005e-03   2.053388e-08   1996640
  1.233886e+00   2.860318e-05   1.842690e-03   2.029984e-08   2016392
  1.240265e+00   2.840875e-05   1.839730e-03   2.007736e-08   2034722
  1.246641e+00   2.815465e-05   1.840813e-03   1.980587e-08   2056460
  1.253014e+00   2.790387e-05   1.838931e-03   1.956200e-08   2075186
  1.259388e+00   2.764696e-05   1.840566e-03   1.927427e-08   2099096
  1.265761e+00   2.741720e-05   1.837910e-03   1.901784e-08   2116832
  1.272138e+00   2.720440e-05   1.844119e-03   1.873199e-08   2145146
  1.278526e+00   2.693944e-05   1.844128e-03   1.846467e-08   2166776
  1.284904e+00   2.671176e-05   1.838822e-03   1.825110e-08   2181848
  1.291273e+00   2.650710e-05   1.838785e-03   1.804030e-08   2203766
  1.297646e+00   2.626282e-05   1.840619e-03   1.777719e-08   2227664
  1.304025e+00   2.597855e-05   1.842381e-03   1.749040e-08   2252138
  1.310403e+00   2.577427e-05   1.839825e-03   1.729586e-08   2271152
  1.316777e+00   2.555558e-05   1.840536e-03   1.703663e-08   2293256
  1.323154e+00   2.529249e-05   1.842085e-03   1.680015e-08   2318130
  1.329536e+00   2.510702e-05   1.841956e-03   1.661115e-08   2340824
  1.335910e+00   2.486717e-05   1.838342e-03   1.636531e-08   2357990
  1.342292e+00   2.462038e-05   1.846396e-03   1.611285e-08   2391176
  1.348671e+00   2.442061e-05   1.837209e-03   1.596439e-08   2401808
  1.355040e+00   2.422319e-05   1.840258e-03   1.572528e-08   2428442
  1.361418e+00   2.395493e-05   1.842645e-03   1.547756e-08   2454752
  1.367798e+00   2.371047e-05   1.841270e-03   1.527467e-08   2475872
  1.374172e+00   2.349901e-05   1.838763e-03   1.507554e-08   2495822
  1.380543e+00   2.329262e-05   1.839940e-03   1.489888e-08   2520248
  1.386922e+00   2.302805e-05   1.844043e-03   1.463974e-08   2549186
  1.393299e+00   2.287236e-05   1.837661e-03   1.447329e-08   2564768
  1.399672e+00   2.264603e-05   1.841284e-03   1.428548e-08   2592968
  1.406054e+00   2.240546e-05   1.843378e-03   1.406926e-08   2619818
  1.412431e+00   2.221882e-05   1.838027e-03   1.389631e-08   2636384
  1.418803e+00   2.199291e-05   1.840293e-03   1.370661e-08   2662220
  1.425180e+00   2.178596e-05   1.842524e-03   1.349950e-08   2689770
  1.431560e+00   2.156178e-05   1.840994e-03   1.331825e-08   2712296
  1.437933e+00   2.136600e-05   1.838431e-03   1.314898e-08   2732618
  1.444312e+00   2.114936e-05   1.843932e-03   1.290862e-08   2765264
  1.450695e+00   2.093967e-05   1.840894e-03   1.276937e-08   2784824
  1.457066e+00   2.074410e-05   1.837138e-03   1.262934e-08   2804162
  1.463445e+00   2.055569e-05   1.844971e-03   1.241042e-08   2840612
  1.469825e+00   2.037217e-05   1.839130e-03   1.228992e-08   2855576
  1.476198e+00   2.014577e-05   1.840533e-03   1.208681e-08   2883458
  1.482571e+00   1.993167e-05   1.838217e-03   1.192824e-08   2904128
  1.488946e+00   1.975084e-05   1.843378e-03   1.174342e-08   2937026
  1.495325e+00   1.955717e-05   1.839218e-03   1.160123e-08   2956976
  1.501703e+00   1.935508e-05   1.841967e-03   1.143361e-08   2986472
  1.508082e+00   1.918650e-05   1.840166e-03   1.129440e-08   3008918
  1.514460e+00   1.898344e-05   1.841773e-03   1.113469e-08   3036752
  1.520836e+00   1.877976e-05   1.839884e-03   1.096678e-08   3058376
  1.527209e+00   1.863937e-05   1.839616e-03   1.085529e-08   3084210
  1.533583e+00   1.841025e-05   1.840948e-03   1.067815e-08   3111848
  1.539960e+00   1.822498e-05   1.841348e-03   1.052560e-08   3138890
  1.546339e+00   1.807264e-05   1.840626e-03   1.040681e-08   3164516
  1.552719e+00   1.788029e-05   1.842638e-03   1.024575e-08   3192656
  1.559097e+00   1.770179e-05   1.840555e-03   1.011937e-08   3215618
  1.565473e+00   1.750762e-05   1.840732e-03   9.975598e-09   3242888
  1.571846e+00   1.732353e-05   1.839114e-03   9.833826e-09   3265448
  1.578224e+00   1.717167e-05   1.843575e-03   9.700594e-09   3300842
  1.584604e+00   1.699620e-05   1.839884e-03   9.584000e-09   3321008
  1.590977e+00   1.679658e-05   1.839336e-03   9.438787e-09   3346406
  1.597352e+00   1.664606e-05   1.841596e-03   9.328268e-09   3377984
  1.603728e+00   1.644288e-05   1.839551e-03   9.179510e-09   3400352
  1.610103e+00   1.631917e-05   1.841321e-03   9.065060e-09   3431450
  1.616483e+00   1.612761e-05   1.841519e-03   8.934355e-09   3458768
  1.622859e+00   1.598461e-05   1.841183e-03   8.825800e-09   3484088
  1.629231e+00   1.582259e-05   1.838425e-03   8.708955e-09   3508218
  1.635610e+00   1.564268e-05   1.843946e-03   8.568062e-09   3545924
  1.641992e+00   1.549691e-05   1.841053e-03   8.474125e-09   3567530
  1.648369e+00   1.535743e-05   1.840183e-03   8.368770e-09   3595040
  1.654744e+00   1.517877e-05   1.840167e-03   8.239049e-09   3621176
  1.661115e+00   1.503868e-05   1.839521e-03   8.133030e-09   3647738
  1.667490e+00   1.486369e-05   1.841438e-03   8.007607e-09   3680480
  1.673870e+00   1.471746e-05   1.842082e-03   7.913682e-09   3709712
  1.680248e+00   1.457211e-05   1.840008e-03   7.808677e-09   3734702
  1.686623e+00   1.443996e-05   1.840362e-03   7.719324e-09   3762776
  1.692996e+00   1.428426e-05   1.839854e-03   7.618052e-09   3790514
  1.699371e+00   1.411439e-05   1.839908e-03   7.489719e-09   3820352
  1.705752e+00   1.397142e-05   1.844068e-03   7.392511e-09   3856016
  1.712131e+00   1.383566e-05   1.839690e-03   7.300858e-09   3876818
  1.718506e+00   1.369423e-05   1.839874e-03   7.208563e-09   3906332
  1.724882e+00   1.355970e-05   1.841963e-03   7.109669e-09   3938216
  1.731260e+00   1.342888e-05   1.840685e-03   7.018365e-09   3966354
  1.737636e+00   1.324595e-05   1.839695e-03   6.916956e-09   3993536
  1.744011e+00   1.313025e-05   1.840344e-03   6.831870e-09   4024034
  1.750392e+00   1.300959e-05   1.843071e-03   6.737361e-09   4060208
  1.756773e+00   1.286803e-05   1.840812e-03   6.651223e-09   4083632
  1.763145e+00   1.273694e-05   1.837811e-03   6.566388e-09   4107062
  1.769521e+00   1.259677e-05   1.842771e-03   6.466430e-09   4148072
  1.775893e+00   1.247786e-05   1.836707e-03   6.395784e-09   4163456
  1.782267e+00   1.234861e-05   1.842476e-03   6.309976e-09   4207994
  1.788652e+00   1.220929e-05   1.843367e-03   6.210493e-09   4239152
  1.795029e+00   1.210111e-05   1.839132e-03   6.153359e-09   4259426
  1.801407e+00   1.199175e-05   1.842524e-03   6.071838e-09   4299488
  1.807788e+00   1.184734e-05   1.840660e-03   5.981275e-09   4323692
  1.814162e+00   1.172241e-05   1.840093e-03   5.905235e-09   4353242
  1.820541e+00   1.161361e-05   1.841694e-03   5.826958e-09   4388792
