# power spectrum of zeta (dimensionless)
# redshift z=-0.571210
# k              Pk             sigma(k)       sigma(Pk)      count
  1.256637e-01   4.851825e-10   0.000000e+00   6.253285e-12   6
  1.777153e-01   1.285258e-09   0.000000e+00   1.166608e-11   12
  2.176559e-01   2.234370e-09   2.384186e-09   3.869723e-11   8
  2.513274e-01   3.395393e-09   0.000000e+00   1.235437e-10   6
  2.809926e-01   4.601291e-09   4.495664e-09   6.891122e-11   24
  3.078120e-01   5.758418e-09   4.495664e-09   8.203453e-11   24
  3.554306e-01   8.287977e-09   0.000000e+00   2.034742e-10   12
  3.769911e-01   9.623913e-09   5.086263e-09   1.802195e-10   30
  3.973835e-01   1.095433e-08   0.000000e+00   2.340260e-10   24
  4.167794e-01   1.225014e-08   7.786718e-09   2.497684e-10   24
  4.353118e-01   1.370796e-08   4.768372e-09   4.957994e-10   8
  4.530869e-01   1.504844e-08   6.357829e-09   3.044734e-10   24
  4.701905e-01   1.610158e-08   0.000000e+00   2.534870e-10   48
  5.026548e-01   1.965862e-08   0.000000e+00   5.153432e-10   6
  5.181247e-01   1.978143e-08   6.357829e-09   2.746858e-10   48
  5.331460e-01   2.129922e-08   5.994218e-09   3.526233e-10   36
  5.477554e-01   2.217176e-08   6.357829e-09   5.021645e-10   24
  5.619852e-01   2.381083e-08   8.991328e-09   4.928128e-10   24
  5.758634e-01   2.506312e-08   0.000000e+00   3.760983e-10   48
  5.894150e-01   2.590694e-08   8.991328e-09   6.101998e-10   24
  6.156239e-01   2.808137e-08   8.991328e-09   7.073820e-10   24
  6.283185e-01   2.981378e-08   0.000000e+00   5.259534e-10   30
  6.407617e-01   3.111884e-08   0.000000e+00   4.081194e-10   72
  6.529678e-01   3.264883e-08   9.536743e-09   6.067725e-10   32
  6.767198e-01   3.403129e-08   0.000000e+00   4.878614e-10   72
  6.882885e-01   3.571374e-08   0.000000e+00   6.080138e-10   48
  7.108613e-01   3.643951e-08   0.000000e+00   9.752187e-10   12
  7.218830e-01   3.751797e-08   0.000000e+00   7.369492e-10   48
  7.327390e-01   3.814333e-08   0.000000e+00   6.152386e-10   48
  7.434365e-01   4.004490e-08   8.991328e-09   8.454980e-10   48
  7.539822e-01   3.983121e-08   1.017253e-08   1.012517e-09   30
  7.643825e-01   4.458795e-08   0.000000e+00   1.402943e-09   24
  7.746431e-01   4.275454e-08   1.895538e-08   8.026454e-10   72
  7.947671e-01   4.583167e-08   0.000000e+00   1.761080e-09   24
  8.046403e-01   4.482275e-08   0.000000e+00   7.801018e-10   96
  8.143939e-01   4.501858e-08   0.000000e+00   1.065599e-09   48
  8.240320e-01   4.485878e-08   1.557344e-08   1.470190e-09   24
  8.335587e-01   4.844111e-08   1.557344e-08   2.062029e-09   24
  8.429778e-01   4.698453e-08   0.000000e+00   9.491653e-10   72
  8.522927e-01   4.889655e-08   0.000000e+00   1.476045e-09   48
  8.706237e-01   4.676528e-08   9.536743e-09   1.470726e-09   8
  8.796459e-01   5.005732e-08   1.130281e-08   1.548128e-09   54
  8.885766e-01   5.002377e-08   0.000000e+00   1.079102e-09   84
  8.974184e-01   5.216488e-08   0.000000e+00   1.793202e-09   48
  9.061739e-01   5.083988e-08   1.271566e-08   2.021961e-09   24
  9.148456e-01   5.285074e-08   1.695421e-08   1.498202e-09   72
  9.234359e-01   5.317804e-08   0.000000e+00   1.366451e-09   96
  9.403811e-01   5.140688e-08   0.000000e+00   1.662023e-09   48
  9.487402e-01   5.203976e-08   0.000000e+00   1.768303e-09   48
  9.570263e-01   5.513998e-08   0.000000e+00   3.210056e-09   24
  9.652412e-01   5.406441e-08   0.000000e+00   1.600219e-09   72
  9.814649e-01   5.222814e-08   0.000000e+00   1.331886e-09   72
  9.894770e-01   5.467211e-08   0.000000e+00   1.454256e-09   96
  1.005310e+00   6.025512e-08   0.000000e+00   8.489656e-09   6
  1.013133e+00   5.548260e-08   0.000000e+00   1.588947e-09   96
  1.020897e+00   5.567069e-08   1.271566e-08   1.601652e-09   96
  1.028602e+00   5.470823e-08   0.000000e+00   3.045195e-09   24
  1.036249e+00   5.604241e-08   1.271566e-08   2.464429e-09   48
  1.043841e+00   5.737023e-08   0.000000e+00   1.871744e-09   96
  1.051378e+00   5.186679e-08   0.000000e+00   1.652203e-09   48
  1.066292e+00   5.736346e-08   1.198844e-08   3.118812e-09   36
  1.073671e+00   5.591475e-08   2.202416e-08   2.542190e-09   48
  1.081000e+00   5.586215e-08   2.491750e-08   1.615991e-09   120
  1.088280e+00   5.377061e-08   0.000000e+00   2.081225e-09   56
  1.095511e+00   5.258298e-08   1.271566e-08   2.691550e-09   24
  1.102695e+00   5.449837e-08   0.000000e+00   1.740007e-09   96
  1.109832e+00   5.281361e-08   0.000000e+00   2.107684e-09   48
  1.123970e+00   5.686657e-08   1.798266e-08   4.136130e-09   24
  1.130973e+00   5.463870e-08   0.000000e+00   1.734494e-09   102
  1.137933e+00   5.828963e-08   1.271566e-08   3.198667e-09   48
  1.144851e+00   5.458701e-08   0.000000e+00   2.143972e-09   72
  1.151727e+00   5.547674e-08   0.000000e+00   2.842661e-09   48
  1.158562e+00   5.538720e-08   0.000000e+00   2.892976e-09   48
  1.165357e+00   5.365586e-08   2.877225e-08   1.757024e-09   120
  1.178830e+00   4.893980e-08   1.798266e-08   2.570211e-09   24
  1.185509e+00   5.324465e-08   1.695421e-08   1.558772e-09   144
  1.192151e+00   5.218073e-08   2.034505e-08   1.676962e-09   120
  1.198755e+00   5.808428e-08   1.798266e-08   3.433042e-09   48
  1.211857e+00   5.206672e-08   1.798266e-08   2.584536e-09   48
  1.218355e+00   5.277034e-08   1.798266e-08   1.886810e-09   96
  1.235512e+00   5.042657e-08   3.015167e-03   2.166546e-09   72
  1.244007e+00   5.204761e-08   1.598458e-08   1.933076e-09   108
  1.250338e+00   4.955532e-08   0.000000e+00   2.113026e-09   72
  1.256637e+00   4.976636e-08   0.000000e+00   3.548300e-09   30
  1.262905e+00   5.018815e-08   0.000000e+00   1.500372e-09   168
  1.269141e+00   5.192094e-08   0.000000e+00   2.960557e-09   48
  1.281523e+00   5.014451e-08   0.000000e+00   2.292063e-09   72
  1.287670e+00   5.174481e-08   0.000000e+00   2.169054e-09   96
  1.293787e+00   5.153375e-08   3.390842e-08   2.503600e-09   72
  1.299875e+00   4.732549e-08   0.000000e+00   2.283150e-09   72
  1.310112e+00   4.961176e-08   2.784031e-03   2.007219e-09   104
  1.317972e+00   4.853120e-08   2.397687e-08   1.733830e-09   144
  1.335824e+00   5.048106e-08   4.021044e-08   2.141464e-09   96
  1.341721e+00   4.196463e-08   0.000000e+00   1.628161e-09   96
  1.351101e+00   4.588329e-08   2.864148e-03   1.718761e-09   120
  1.359261e+00   4.634138e-08   0.000000e+00   1.886767e-09   120
  1.365057e+00   4.736044e-08   0.000000e+00   2.442160e-09   72
  1.376577e+00   5.176993e-08   0.000000e+00   3.187299e-09   48
  1.382301e+00   4.222654e-08   3.130008e-08   2.189277e-09   78
  1.389623e+00   4.455956e-08   2.564571e-03   1.493033e-09   168
  1.404963e+00   4.617704e-08   2.936555e-08   1.744850e-09   144
  1.410572e+00   4.814610e-08   2.397687e-08   1.797428e-09   144
  1.426839e+00   4.280312e-08   1.476986e-03   1.566798e-09   156
  1.432787e+00   4.713065e-08   3.114687e-08   3.260634e-09   48
  1.438287e+00   4.544634e-08   2.034505e-08   1.949433e-09   120
  1.443766e+00   4.164777e-08   0.000000e+00   2.709360e-09   48
  1.453454e+00   4.243275e-08   2.260797e-03   1.371887e-09   216
  1.465478e+00   3.784484e-08   0.000000e+00   2.990920e-09   48
  1.470856e+00   4.302904e-08   1.798266e-08   2.223002e-09   96
  1.478502e+00   4.210943e-08   2.642094e-03   1.622860e-09   168
  1.486873e+00   4.039557e-08   1.798266e-08   2.882816e-09   48
  1.492174e+00   4.645337e-08   0.000000e+00   2.040773e-09   96
  1.497456e+00   3.390014e-08   0.000000e+00   2.484694e-09   48
  1.507964e+00   3.615026e-08   2.034505e-08   3.737197e-09   30
  1.513191e+00   4.288047e-08   0.000000e+00   2.187815e-09   96
  1.519439e+00   4.371896e-08   2.076451e-03   1.391091e-09   240
  1.527472e+00   5.197345e-08   2.240191e-03   4.248171e-09   32
  1.533921e+00   4.004640e-08   0.000000e+00   1.806960e-09   168
  1.539060e+00   4.069752e-08   0.000000e+00   1.917067e-09   120
  1.549286e+00   4.424298e-08   3.791077e-08   2.565539e-09   72
  1.554374e+00   3.927799e-08   1.695421e-08   1.854771e-09   144
  1.559446e+00   4.527102e-08   0.000000e+00   2.422582e-09   96
  1.564501e+00   3.704531e-08   0.000000e+00   2.049382e-09   96
  1.574562e+00   5.407944e-08   0.000000e+00   2.430904e-09   72
  1.579568e+00   3.737215e-08   2.543132e-08   2.142294e-09   96
  1.589534e+00   5.667397e-08   0.000000e+00   4.011272e-09   24
  1.594494e+00   3.956900e-08   0.000000e+00   1.608087e-09   192
  1.600334e+00   3.920553e-08   1.901066e-03   1.978056e-09   132
  1.609281e+00   4.303491e-08   0.000000e+00   2.491914e-09   96
  1.614180e+00   3.173620e-08   0.000000e+00   2.137620e-09   96
  1.619064e+00   3.196680e-08   2.034505e-08   1.924458e-09   120
  1.628788e+00   3.113992e-08   0.000000e+00   3.060273e-09   48
  1.636759e+00   4.719484e-08   2.303939e-03   1.613063e-09   222
  1.643266e+00   4.150611e-08   0.000000e+00   2.237532e-09   120
  1.648064e+00   2.857498e-08   3.114687e-08   4.118514e-09   24
  1.655050e+00   4.347475e-08   2.378000e-03   1.406036e-09   312
  1.670270e+00   4.766541e-08   2.229470e-03   3.169591e-09   72
  1.676563e+00   4.773534e-08   3.114687e-08   2.497965e-09   96
  1.683024e+00   4.085028e-08   2.270407e-03   1.930625e-09   192
  1.690632e+00   3.391010e-08   2.877225e-08   2.280194e-09   120
  1.695296e+00   4.447971e-08   0.000000e+00   2.259896e-09   144
  1.704585e+00   4.429440e-08   0.000000e+00   3.156755e-09   48
  1.711188e+00   4.020167e-08   2.282974e-03   1.427293e-09   336
  1.718425e+00   4.507285e-08   0.000000e+00   4.241145e-09   48
  1.727590e+00   4.084825e-08   0.000000e+00   1.886967e-09   192
  1.732155e+00   2.698753e-08   0.000000e+00   3.225711e-09   48
  1.745129e+00   3.306970e-08   1.584683e-03   3.258011e-09   56
  1.751580e+00   4.157248e-08   2.035272e-03   1.466019e-09   336
  1.759292e+00   4.373469e-08   2.260561e-08   3.274350e-09   54
  1.766010e+00   4.496770e-08   2.235459e-03   1.980855e-09   240
  1.779956e+00   4.791680e-08   2.140470e-03   2.191373e-09   228
  1.786017e+00   3.540532e-08   2.397687e-08   2.815546e-09   72
  1.791900e+00   4.801270e-08   2.076308e-03   2.497275e-09   144
  1.799230e+00   5.129061e-08   0.000000e+00   2.928716e-09   96
  1.803613e+00   4.259846e-08   2.877225e-08   2.046696e-09   240
  1.812348e+00   3.708665e-08   2.543132e-08   5.444147e-09   24
  1.817939e+00   4.314334e-08   1.961057e-03   1.620213e-09   336
  1.825371e+00   2.532442e-08   0.000000e+00   2.855226e-09   72
  1.832154e+00   4.878177e-08   2.133012e-03   2.651415e-09   168
  1.838302e+00   5.790754e-08   0.000000e+00   3.200959e-09   72
  1.846872e+00   5.179104e-08   0.000000e+00   3.426226e-09   96
  1.853509e+00   2.995115e-08   2.117011e-03   1.710850e-09   216
  1.859653e+00   4.049766e-08   0.000000e+00   2.768587e-09   96
  1.868125e+00   4.791586e-08   2.543132e-08   2.266642e-09   192
  1.872347e+00   4.807991e-08   2.397687e-08   2.547043e-09   144
  1.880762e+00   3.015599e-08   0.000000e+00   3.393307e-09   48
  1.886588e+00   4.508457e-08   2.041047e-03   2.260887e-09   246
  1.894505e+00   4.474319e-08   1.881878e-03   2.713279e-09   168
  1.901637e+00   4.428684e-08   4.983500e-08   3.304104e-09   120
  1.905784e+00   4.955906e-08   0.000000e+00   2.386262e-09   240
  1.914053e+00   5.939098e-08   0.000000e+00   5.771705e-09   24
  1.920640e+00   4.471564e-08   2.014384e-03   1.813523e-09   360
  1.928845e+00   6.442451e-08   2.005812e-03   3.503366e-09   120
  1.934568e+00   4.085621e-08   0.000000e+00   2.472976e-09   144
  1.938645e+00   5.757028e-08   0.000000e+00   4.504660e-09   96
  1.950825e+00   4.796820e-08   0.000000e+00   2.828640e-09   144
  1.954868e+00   5.286506e-08   0.000000e+00   3.341247e-09   132
  1.960551e+00   3.959194e-08   1.979707e-03   2.557182e-09   176
  1.968799e+00   4.316896e-08   1.999105e-03   2.009145e-09   312
  1.978954e+00   4.122010e-08   0.000000e+00   2.965906e-09   96
  1.982940e+00   3.470293e-08   0.000000e+00   2.398959e-09   144
  1.989055e+00   4.874955e-08   1.979053e-03   2.163655e-09   312
  1.998804e+00   2.933130e-08   0.000000e+00   3.769431e-09   48
  2.002750e+00   4.761552e-08   2.543132e-08   2.415589e-09   192
  2.010619e+00   1.079793e-07   0.000000e+00   1.259132e-08   6
  2.015848e+00   4.724958e-08   1.845802e-03   2.433614e-09   288
  2.024316e+00   5.211242e-08   1.950210e-03   2.891524e-09   192
  2.030159e+00   5.634721e-08   5.980883e-08   2.878047e-09   216
  2.034045e+00   4.995199e-08   0.000000e+00   4.492447e-09   72
  2.043725e+00   5.982475e-08   1.931689e-03   3.161253e-09   192
  2.050154e+00   4.688884e-08   1.434383e-03   2.448149e-09   288
  2.057204e+00   4.069756e-08   0.000000e+00   5.655129e-09   24
  2.062650e+00   4.274613e-08   1.889681e-03   1.743420e-09   456
  2.072499e+00   5.961910e-08   0.000000e+00   7.159206e-09   48
  2.078585e+00   5.158940e-08   1.861260e-03   2.842757e-09   240
  2.085579e+00   5.419265e-08   1.881013e-03   2.709455e-09   216
  2.091461e+00   5.095061e-08   0.000000e+00   3.774121e-09   72
  2.095233e+00   3.947582e-08   6.498988e-08   2.431039e-09   168
  2.105882e+00   4.404984e-08   1.398129e-03   2.339479e-09   288
  2.111855e+00   4.900497e-08   1.849965e-03   3.124259e-09   168
  2.121448e+00   4.124780e-08   0.000000e+00   2.770519e-09   192
  2.125166e+00   3.767915e-08   2.397687e-08   2.488198e-09   144
  2.132584e+00   6.502642e-08   2.397687e-08   7.124179e-09   36
  2.138874e+00   4.959619e-08   1.689411e-03   2.289408e-09   342
  2.144889e+00   5.234344e-08   1.734820e-03   3.919854e-09   144
  2.152621e+00   5.285594e-08   1.819392e-03   2.409695e-09   384
  2.162000e+00   4.795278e-08   4.983500e-08   3.391790e-09   120
  2.166643e+00   5.650986e-08   1.622368e-03   2.786613e-09   264
  2.172929e+00   5.172176e-08   8.042088e-08   3.448085e-09   192
  2.178848e+00   4.019928e-08   1.748412e-03   2.852344e-09   152
  2.183802e+00   5.203871e-08   4.795375e-08   4.360042e-09   144
  2.194222e+00   4.282912e-08   1.131589e-03   2.642905e-09   216
  2.199045e+00   5.413797e-08   1.512105e-03   2.584516e-09   312
  2.207535e+00   5.236949e-08   1.752500e-03   2.853631e-09   240
  2.212538e+00   3.940663e-08   2.543132e-08   3.017983e-09   96
  2.222033e+00   3.020939e-08   1.675517e-03   2.247967e-09   144
  2.227885e+00   4.783374e-08   1.646885e-03   1.996236e-09   456
  2.237379e+00   4.120141e-08   0.000000e+00   2.905644e-09   120
  2.240905e+00   4.770891e-08   0.000000e+00   3.595007e-09   144
  2.247941e+00   5.068482e-08   3.596531e-08   7.131019e-09   24
  2.252452e+00   3.961004e-08   1.583038e-03   1.863673e-09   336
  2.260253e+00   4.661922e-08   1.745876e-03   3.021130e-09   198
  2.267563e+00   4.685752e-08   1.697764e-03   2.214331e-09   432
  2.275867e+00   8.038804e-08   5.086263e-08   8.307716e-09   48
  2.280199e+00   5.362608e-08   1.498832e-03   2.381443e-09   384
  2.287976e+00   4.200391e-08   1.725473e-03   3.838381e-09   144
  2.295024e+00   5.715092e-08   1.713168e-03   3.229143e-09   264
  2.303454e+00   4.117787e-08   0.000000e+00   4.392499e-09   48
  2.309110e+00   4.798843e-08   1.628943e-03   2.714635e-09   276
  2.314567e+00   4.945774e-08   1.476593e-03   3.138432e-09   192
  2.321860e+00   4.484354e-08   1.659366e-03   1.761799e-09   552
  2.330715e+00   5.475206e-08   4.069010e-08   4.631528e-09   120
  2.335978e+00   3.082843e-08   1.679687e-03   1.947388e-09   216
  2.340855e+00   4.211734e-08   4.069010e-08   3.038649e-09   120
  2.349569e+00   4.761682e-08   1.654080e-03   2.194471e-09   408
  2.357660e+00   2.116750e-08   3.596531e-08   4.988826e-09   24
  2.362678e+00   4.109916e-08   1.670919e-03   1.914181e-09   384
  2.369685e+00   3.568115e-08   1.632547e-03   2.126229e-09   240
  2.375770e+00   4.905107e-08   1.644502e-03   3.135119e-09   168
  2.384301e+00   3.776088e-08   0.000000e+00   3.329406e-09   120
  2.389801e+00   4.453850e-08   1.714308e-03   2.362250e-09   350
  2.398744e+00   5.042600e-08   2.822081e-03   2.458737e-09   384
  2.404088e+00   5.743777e-08   0.000000e+00   4.778008e-09   144
  2.413921e+00   4.277082e-08   3.390842e-08   2.434745e-09   288
  2.419055e+00   4.683149e-08   1.615394e-03   2.640919e-09   336
  2.426039e+00   3.516144e-08   1.470682e-03   2.359402e-09   168
  2.430220e+00   4.704951e-08   9.639558e-08   2.382950e-09   336
  2.438868e+00   4.036752e-08   1.526480e-03   2.370252e-09   288
  2.444062e+00   5.069706e-08   1.438335e-03   2.807914e-09   264
  2.452858e+00   4.050684e-08   0.000000e+00   2.684661e-09   240
  2.456075e+00   3.818133e-08   0.000000e+00   3.516054e-09   96
  2.467620e+00   4.151999e-08   1.956039e-03   2.090882e-09   360
  2.473008e+00   4.254512e-08   1.441936e-03   3.321436e-09   168
  2.479816e+00   3.629419e-08   1.571860e-03   1.639685e-09   456
  2.488014e+00   3.556479e-08   4.521123e-08   3.015391e-09   108
  2.492626e+00   3.369531e-08   1.577159e-03   1.970468e-09   264
  2.498378e+00   3.770612e-08   1.407083e-03   2.173895e-09   264
  2.506256e+00   4.051615e-08   1.327788e-03   2.048102e-09   312
  2.516065e+00   4.412143e-08   9.866910e-04   2.714555e-09   270
  2.520176e+00   4.251844e-08   1.252729e-03   2.801075e-09   240
  2.527567e+00   4.365147e-08   1.549783e-03   2.387323e-09   384
  2.532054e+00   3.601887e-08   5.086263e-08   2.469415e-09   192
  2.540769e+00   4.469405e-08   1.243495e-03   2.921641e-09   240
  2.545825e+00   4.416411e-08   1.534673e-03   2.345579e-09   336
  2.555333e+00   3.865578e-08   1.544942e-03   1.748915e-09   480
  2.563047e+00   4.766640e-08   3.390842e-08   5.451677e-09   72
  2.567356e+00   4.136105e-08   1.506459e-03   2.951731e-09   240
  2.573216e+00   3.706002e-08   1.415865e-03   2.131976e-09   312
  2.579934e+00   3.327057e-08   1.530210e-03   1.874358e-09   240
  2.590086e+00   3.830074e-08   1.162564e-03   1.756857e-09   408
  2.594104e+00   3.732150e-08   1.064628e-03   1.941645e-09   336
  2.601958e+00   3.798457e-08   1.351816e-03   2.170782e-09   264
  2.605818e+00   2.986724e-08   0.000000e+00   2.139438e-09   144
  2.616557e+00   3.412837e-08   1.873697e-03   1.518962e-09   464
  2.622215e+00   3.323852e-08   1.489973e-03   2.398911e-09   168
  2.627801e+00   3.030474e-08   1.357041e-03   1.685468e-09   336
  2.637897e+00   3.402625e-08   1.425837e-03   1.665097e-09   414
  2.643588e+00   4.521998e-08   1.484211e-03   3.226948e-09   216
  2.650879e+00   5.508509e-08   3.596531e-08   4.965193e-09   96
  2.653856e+00   3.552361e-08   8.809666e-08   1.994219e-09   384
  2.664284e+00   3.665370e-08   1.481344e-03   1.654615e-09   492
  2.669873e+00   4.343159e-08   1.448627e-03   2.666173e-09   240
  2.676189e+00   3.898519e-08   1.470864e-03   2.124366e-09   312
  2.684913e+00   3.385433e-08   1.470380e-03   2.521431e-09   192
  2.690439e+00   3.518468e-08   1.424976e-03   1.575914e-09   504
  2.697770e+00   3.308850e-08   9.433586e-04   1.607560e-09   408
  2.703542e+00   3.079387e-08   2.890096e-03   2.122982e-09   168
  2.710765e+00   3.798121e-08   1.372821e-03   2.098889e-09   288
  2.716826e+00   3.528556e-08   1.432656e-03   1.880491e-09   288
  2.723035e+00   2.970064e-08   1.440903e-03   1.453836e-09   432
  2.732042e+00   3.123303e-08   1.362614e-03   1.999119e-09   216
  2.736854e+00   3.010943e-08   1.359739e-03   1.586885e-09   360
  2.745421e+00   3.172234e-08   1.327092e-03   1.721421e-09   312
  2.753154e+00   2.823370e-08   0.000000e+00   3.668596e-09   48
  2.757611e+00   3.315502e-08   1.422834e-03   1.452548e-09   432
  2.765594e+00   3.394132e-08   2.373302e-03   1.643464e-09   414
  2.770308e+00   3.431276e-08   5.421333e-08   1.960463e-09   312
  2.779102e+00   3.515559e-08   2.082441e-03   1.629715e-09   528
  2.785037e+00   3.217899e-08   1.093105e-03   2.112861e-09   264
  2.792167e+00   3.708532e-08   1.296122e-03   1.624004e-09   480
  2.801483e+00   3.503520e-08   0.000000e+00   1.975547e-09   288
  2.805506e+00   2.766923e-08   1.392643e-03   2.083784e-09   168
  2.812867e+00   3.412484e-08   2.204550e-03   1.499776e-09   504
