# power spectrum of zeta (dimensionless)
# redshift z=-0.581556
# k              Pk             sigma(k)       sigma(Pk)      count
  1.256637e-01   1.003528e-07   0.000000e+00   2.177299e-10   6
  1.777153e-01   2.771331e-07   0.000000e+00   4.222771e-10   12
  2.176559e-01   4.972931e-07   2.384186e-09   9.397848e-10   8
  2.513274e-01   7.513323e-07   0.000000e+00   2.351167e-09   6
  2.809926e-01   1.027735e-06   4.495664e-09   2.510131e-09   24
  3.078120e-01   1.320194e-06   4.495664e-09   2.412494e-09   24
  3.554306e-01   1.948319e-06   0.000000e+00   9.041927e-09   12
  3.769911e-01   2.278015e-06   5.086263e-09   6.727456e-09   30
  3.973835e-01   2.617529e-06   0.000000e+00   1.299359e-08   24
  4.167794e-01   2.955784e-06   7.786718e-09   1.407317e-08   24
  4.353118e-01   3.294830e-06   4.768372e-09   1.358971e-08   8
  4.530869e-01   3.647702e-06   6.357829e-09   1.748908e-08   24
  4.701905e-01   3.985671e-06   0.000000e+00   1.348591e-08   48
  5.026548e-01   4.736368e-06   0.000000e+00   8.985808e-08   6
  5.181247e-01   5.030905e-06   6.357829e-09   2.661654e-08   48
  5.331460e-01   5.388311e-06   5.994218e-09   3.749760e-08   36
  5.477554e-01   5.691494e-06   6.357829e-09   3.141141e-08   24
  5.619852e-01   6.071091e-06   8.991328e-09   5.818501e-08   24
  5.758634e-01   6.397653e-06   0.000000e+00   4.126599e-08   48
  5.894150e-01   6.670674e-06   8.991328e-09   2.872989e-08   24
  6.156239e-01   7.340362e-06   8.991328e-09   6.016518e-08   24
  6.283185e-01   7.707975e-06   0.000000e+00   7.759377e-08   30
  6.407617e-01   8.024952e-06   0.000000e+00   5.566835e-08   72
  6.529678e-01   8.372370e-06   9.536743e-09   9.956999e-08   32
  6.767198e-01   8.885333e-06   0.000000e+00   5.774601e-08   72
  6.882885e-01   9.278324e-06   0.000000e+00   9.870278e-08   48
  7.108613e-01   9.714844e-06   0.000000e+00   1.587358e-07   12
  7.218830e-01   1.000533e-05   0.000000e+00   9.225759e-08   48
  7.327390e-01   1.022550e-05   0.000000e+00   8.599606e-08   48
  7.434365e-01   1.057616e-05   8.991328e-09   1.110609e-07   48
  7.539822e-01   1.076250e-05   1.017253e-08   1.373413e-07   30
  7.643825e-01   1.145849e-05   0.000000e+00   2.616434e-07   24
  7.746431e-01   1.137883e-05   1.895538e-08   1.152104e-07   72
  7.947671e-01   1.209688e-05   0.000000e+00   2.706527e-07   24
  8.046403e-01   1.206201e-05   0.000000e+00   1.120609e-07   96
  8.143939e-01   1.214622e-05   0.000000e+00   1.366561e-07   48
  8.240320e-01   1.222073e-05   1.557344e-08   1.496046e-07   24
  8.335587e-01   1.285251e-05   1.557344e-08   2.709181e-07   24
  8.429778e-01   1.278260e-05   0.000000e+00   1.276214e-07   72
  8.522927e-01   1.321239e-05   0.000000e+00   1.990699e-07   48
  8.706237e-01   1.293509e-05   9.536743e-09   1.614019e-07   8
  8.796459e-01   1.373124e-05   1.130281e-08   1.991238e-07   54
  8.885766e-01   1.377434e-05   0.000000e+00   1.575993e-07   84
  8.974184e-01   1.427643e-05   0.000000e+00   2.561931e-07   48
  9.061739e-01   1.415508e-05   1.271566e-08   3.128678e-07   24
  9.148456e-01   1.451942e-05   1.695421e-08   2.053302e-07   72
  9.234359e-01   1.465809e-05   0.000000e+00   1.786910e-07   96
  9.403811e-01   1.453184e-05   0.000000e+00   2.085533e-07   48
  9.487402e-01   1.479232e-05   0.000000e+00   2.343849e-07   48
  9.570263e-01   1.555158e-05   0.000000e+00   4.168043e-07   24
  9.652412e-01   1.525601e-05   0.000000e+00   2.157436e-07   72
  9.814649e-01   1.500627e-05   0.000000e+00   1.820444e-07   72
  9.894770e-01   1.554234e-05   0.000000e+00   1.946498e-07   96
  1.005310e+00   1.738390e-05   0.000000e+00   1.070321e-06   6
  1.013133e+00   1.606584e-05   0.000000e+00   2.283136e-07   96
  1.020897e+00   1.616432e-05   1.271566e-08   2.261185e-07   96
  1.028602e+00   1.602755e-05   0.000000e+00   3.781139e-07   24
  1.036249e+00   1.641497e-05   1.271566e-08   3.348734e-07   48
  1.043841e+00   1.687023e-05   0.000000e+00   2.415400e-07   96
  1.051378e+00   1.547378e-05   0.000000e+00   2.286934e-07   48
  1.066292e+00   1.710405e-05   1.198844e-08   4.163281e-07   36
  1.073671e+00   1.687266e-05   2.202416e-08   3.658969e-07   48
  1.081000e+00   1.683715e-05   2.491750e-08   2.139317e-07   120
  1.088280e+00   1.631375e-05   0.000000e+00   3.106219e-07   56
  1.095511e+00   1.600752e-05   1.271566e-08   4.474424e-07   24
  1.102695e+00   1.656603e-05   0.000000e+00   2.298556e-07   96
  1.109832e+00   1.639053e-05   0.000000e+00   3.271359e-07   48
  1.123970e+00   1.766080e-05   1.798266e-08   5.269034e-07   24
  1.130973e+00   1.698509e-05   0.000000e+00   2.498744e-07   102
  1.137933e+00   1.859576e-05   1.271566e-08   3.867485e-07   48
  1.144851e+00   1.737924e-05   0.000000e+00   3.314193e-07   72
  1.151727e+00   1.746505e-05   0.000000e+00   3.490808e-07   48
  1.158562e+00   1.815930e-05   0.000000e+00   4.452950e-07   48
  1.165357e+00   1.756810e-05   2.877225e-08   2.782374e-07   120
  1.178830e+00   1.562397e-05   1.798266e-08   4.218279e-07   24
  1.185509e+00   1.735240e-05   1.695421e-08   2.313291e-07   144
  1.192151e+00   1.719189e-05   2.034505e-08   2.592462e-07   120
  1.198755e+00   1.928142e-05   1.798266e-08   3.572222e-07   48
  1.211857e+00   1.714990e-05   1.798266e-08   3.959027e-07   48
  1.218355e+00   1.755394e-05   1.798266e-08   2.968439e-07   96
  1.235512e+00   1.695099e-05   3.015167e-03   3.439719e-07   72
  1.244007e+00   1.764882e-05   1.598458e-08   2.875904e-07   108
  1.250338e+00   1.688818e-05   0.000000e+00   3.653203e-07   72
  1.256637e+00   1.802703e-05   0.000000e+00   6.782119e-07   30
  1.262905e+00   1.765868e-05   0.000000e+00   2.643045e-07   168
  1.269141e+00   1.889077e-05   0.000000e+00   5.416871e-07   48
  1.281523e+00   1.820107e-05   0.000000e+00   4.305128e-07   72
  1.287670e+00   1.863912e-05   0.000000e+00   3.548113e-07   96
  1.293787e+00   1.802924e-05   3.390842e-08   3.373363e-07   72
  1.299875e+00   1.730646e-05   0.000000e+00   4.075821e-07   72
  1.310112e+00   1.813817e-05   2.784031e-03   3.624689e-07   104
  1.317972e+00   1.771647e-05   2.397687e-08   3.071382e-07   144
  1.335824e+00   1.853622e-05   4.021044e-08   3.507970e-07   96
  1.341721e+00   1.582783e-05   0.000000e+00   3.859476e-07   96
  1.351101e+00   1.694803e-05   2.864148e-03   3.297610e-07   120
  1.359261e+00   1.778072e-05   0.000000e+00   3.634589e-07   120
  1.365057e+00   1.798023e-05   0.000000e+00   4.390901e-07   72
  1.376577e+00   1.927670e-05   0.000000e+00   4.224916e-07   48
  1.382301e+00   1.644890e-05   3.130008e-08   4.904267e-07   78
  1.389623e+00   1.764301e-05   2.564571e-03   3.625218e-07   168
  1.404963e+00   1.789694e-05   2.936555e-08   3.598706e-07   144
  1.410572e+00   1.905971e-05   2.397687e-08   3.498313e-07   144
  1.426839e+00   1.711884e-05   1.476986e-03   3.750345e-07   156
  1.432787e+00   1.914353e-05   3.114687e-08   6.742800e-07   48
  1.438287e+00   1.821488e-05   2.034505e-08   4.352379e-07   120
  1.443766e+00   1.646732e-05   0.000000e+00   6.224050e-07   48
  1.453454e+00   1.689845e-05   2.260797e-03   3.208566e-07   216
  1.465478e+00   1.552893e-05   0.000000e+00   7.121131e-07   48
  1.470856e+00   1.754767e-05   1.798266e-08   4.989846e-07   96
  1.478502e+00   1.692010e-05   2.642094e-03   3.989900e-07   168
  1.486873e+00   1.685354e-05   1.798266e-08   6.655318e-07   48
  1.492174e+00   1.809898e-05   0.000000e+00   4.434084e-07   96
  1.497456e+00   1.408928e-05   0.000000e+00   6.545974e-07   48
  1.507964e+00   1.592873e-05   2.034505e-08   1.133890e-06   30
  1.513191e+00   1.801270e-05   0.000000e+00   5.891374e-07   96
  1.519439e+00   1.785585e-05   2.076451e-03   3.509834e-07   240
  1.527472e+00   2.091847e-05   2.240191e-03   1.066845e-06   32
  1.533921e+00   1.689617e-05   0.000000e+00   4.992494e-07   168
  1.539060e+00   1.684829e-05   0.000000e+00   4.722945e-07   120
  1.549286e+00   1.762296e-05   3.791077e-08   6.883007e-07   72
  1.554374e+00   1.623211e-05   1.695421e-08   4.993770e-07   144
  1.559446e+00   1.829734e-05   0.000000e+00   6.450225e-07   96
  1.564501e+00   1.527845e-05   0.000000e+00   5.638702e-07   96
  1.574562e+00   2.045991e-05   0.000000e+00   5.884961e-07   72
  1.579568e+00   1.613310e-05   2.543132e-08   5.754346e-07   96
  1.589534e+00   2.127071e-05   0.000000e+00   9.520411e-07   24
  1.594494e+00   1.623167e-05   0.000000e+00   4.456609e-07   192
  1.600334e+00   1.582765e-05   1.901066e-03   5.373015e-07   132
  1.609281e+00   1.691265e-05   0.000000e+00   6.746643e-07   96
  1.614180e+00   1.436425e-05   0.000000e+00   6.097858e-07   96
  1.619064e+00   1.400284e-05   2.034505e-08   5.550083e-07   120
  1.628788e+00   1.447144e-05   0.000000e+00   8.926895e-07   48
  1.636759e+00   1.822801e-05   2.303939e-03   4.569142e-07   222
  1.643266e+00   1.703930e-05   0.000000e+00   6.435589e-07   120
  1.648064e+00   1.258263e-05   3.114687e-08   1.204443e-06   24
  1.655050e+00   1.714864e-05   2.378000e-03   4.047617e-07   312
  1.670270e+00   1.732297e-05   2.229470e-03   9.109368e-07   72
  1.676563e+00   1.767043e-05   3.114687e-08   7.147423e-07   96
  1.683024e+00   1.609705e-05   2.270407e-03   5.410739e-07   192
  1.690632e+00   1.426543e-05   2.877225e-08   6.493524e-07   120
  1.695296e+00   1.657524e-05   0.000000e+00   6.126229e-07   144
  1.704585e+00   1.686665e-05   0.000000e+00   9.275051e-07   48
  1.711188e+00   1.553545e-05   2.282974e-03   3.961831e-07   336
  1.718425e+00   1.609059e-05   0.000000e+00   1.144411e-06   48
  1.727590e+00   1.549655e-05   0.000000e+00   5.277056e-07   192
  1.732155e+00   1.275972e-05   0.000000e+00   9.872468e-07   48
  1.745129e+00   1.353620e-05   1.584683e-03   9.616186e-07   56
  1.751580e+00   1.527942e-05   2.035272e-03   4.124495e-07   336
  1.759292e+00   1.583592e-05   2.260561e-08   1.012320e-06   54
  1.766010e+00   1.618278e-05   2.235459e-03   5.532245e-07   240
  1.779956e+00   1.639085e-05   2.140470e-03   5.841927e-07   228
  1.786017e+00   1.410047e-05   2.397687e-08   8.389428e-07   72
  1.791900e+00   1.631622e-05   2.076308e-03   6.567997e-07   144
  1.799230e+00   1.670418e-05   0.000000e+00   8.117280e-07   96
  1.803613e+00   1.494801e-05   2.877225e-08   5.409324e-07   240
  1.812348e+00   1.450352e-05   2.543132e-08   1.511162e-06   24
  1.817939e+00   1.478083e-05   1.961057e-03   4.360902e-07   336
  1.825371e+00   1.133763e-05   0.000000e+00   8.885800e-07   72
  1.832154e+00   1.557450e-05   2.133012e-03   6.722066e-07   168
  1.838302e+00   1.710786e-05   0.000000e+00   8.846032e-07   72
  1.846872e+00   1.570468e-05   0.000000e+00   8.515519e-07   96
  1.853509e+00   1.194795e-05   2.117011e-03   5.191552e-07   216
  1.859653e+00   1.377411e-05   0.000000e+00   7.901032e-07   96
  1.868125e+00   1.470139e-05   2.543132e-08   5.865577e-07   192
  1.872347e+00   1.535596e-05   2.397687e-08   6.574799e-07   144
  1.880762e+00   1.187482e-05   0.000000e+00   1.079692e-06   48
  1.886588e+00   1.453988e-05   2.041047e-03   5.636744e-07   246
  1.894505e+00   1.399032e-05   1.881878e-03   6.887363e-07   168
  1.901637e+00   1.399019e-05   4.983500e-08   8.114695e-07   120
  1.905784e+00   1.456527e-05   0.000000e+00   5.789105e-07   240
  1.914053e+00   1.667655e-05   0.000000e+00   1.544724e-06   24
  1.920640e+00   1.380263e-05   2.014384e-03   4.486729e-07   360
  1.928845e+00   1.670584e-05   2.005812e-03   8.009698e-07   120
  1.934568e+00   1.301247e-05   0.000000e+00   6.544626e-07   144
  1.938645e+00   1.493941e-05   0.000000e+00   9.631973e-07   96
  1.950825e+00   1.372307e-05   0.000000e+00   6.830763e-07   144
  1.954868e+00   1.443870e-05   0.000000e+00   7.454982e-07   132
  1.960551e+00   1.209413e-05   1.979707e-03   6.263064e-07   176
  1.968799e+00   1.282011e-05   1.999105e-03   4.803848e-07   312
  1.978954e+00   1.258414e-05   0.000000e+00   7.889324e-07   96
  1.982940e+00   1.126055e-05   0.000000e+00   6.833025e-07   144
  1.989055e+00   1.326528e-05   1.979053e-03   4.813495e-07   312
  1.998804e+00   1.107047e-05   0.000000e+00   1.151132e-06   48
  2.002750e+00   1.294022e-05   2.543132e-08   5.733652e-07   192
  2.010619e+00   2.251819e-05   0.000000e+00   3.043491e-06   6
  2.015848e+00   1.250117e-05   1.845802e-03   5.345271e-07   288
  2.024316e+00   1.350125e-05   1.950210e-03   6.079265e-07   192
  2.030159e+00   1.386171e-05   5.980883e-08   5.918999e-07   216
  2.034045e+00   1.268264e-05   0.000000e+00   1.016838e-06   72
  2.043725e+00   1.410238e-05   1.931689e-03   6.163614e-07   192
  2.050154e+00   1.206527e-05   1.434383e-03   5.126341e-07   288
  2.057204e+00   1.068835e-05   0.000000e+00   1.519954e-06   24
  2.062650e+00   1.154135e-05   1.889681e-03   3.885383e-07   456
  2.072499e+00   1.292040e-05   0.000000e+00   1.319835e-06   48
  2.078585e+00   1.251547e-05   1.861260e-03   5.474279e-07   240
  2.085579e+00   1.246849e-05   1.881013e-03   5.335813e-07   216
  2.091461e+00   1.209415e-05   0.000000e+00   8.586671e-07   72
  2.095233e+00   1.121305e-05   6.498988e-08   6.102507e-07   168
  2.105882e+00   1.099085e-05   1.398129e-03   4.883699e-07   288
  2.111855e+00   1.124362e-05   1.849965e-03   6.367360e-07   168
  2.121448e+00   1.040066e-05   0.000000e+00   6.010914e-07   192
  2.125166e+00   1.003870e-05   2.397687e-08   6.440613e-07   144
  2.132584e+00   1.286974e-05   2.397687e-08   1.193849e-06   36
  2.138874e+00   1.148532e-05   1.689411e-03   4.437922e-07   342
  2.144889e+00   1.215381e-05   1.734820e-03   7.097190e-07   144
  2.152621e+00   1.166287e-05   1.819392e-03   4.260696e-07   384
  2.162000e+00   1.077491e-05   4.983500e-08   6.877368e-07   120
  2.166643e+00   1.169355e-05   1.622368e-03   4.749642e-07   264
  2.172929e+00   1.103766e-05   8.042088e-08   5.940488e-07   192
  2.178848e+00   1.001411e-05   1.748412e-03   6.454939e-07   152
  2.183802e+00   1.062066e-05   4.795375e-08   7.275057e-07   144
  2.194222e+00   1.020049e-05   1.131589e-03   5.343481e-07   216
  2.199045e+00   1.105494e-05   1.512105e-03   4.361196e-07   312
  2.207535e+00   1.023498e-05   1.752500e-03   4.957883e-07   240
  2.212538e+00   9.501719e-06   2.543132e-08   7.443095e-07   96
  2.222033e+00   8.970771e-06   1.675517e-03   6.779046e-07   144
  2.227885e+00   1.002973e-05   1.646885e-03   3.603264e-07   456
  2.237379e+00   9.929382e-06   0.000000e+00   6.714767e-07   120
  2.240905e+00   1.005249e-05   0.000000e+00   6.466920e-07   144
  2.247941e+00   1.056303e-05   3.596531e-08   1.340080e-06   24
  2.252452e+00   9.438354e-06   1.583038e-03   4.139194e-07   336
  2.260253e+00   9.331400e-06   1.745876e-03   5.453048e-07   198
  2.267563e+00   9.740658e-06   1.697764e-03   3.842140e-07   432
  2.275867e+00   1.173109e-05   5.086263e-08   9.647620e-07   48
  2.280199e+00   9.906338e-06   1.498832e-03   3.688082e-07   384
  2.287976e+00   8.828530e-06   1.725473e-03   6.779073e-07   144
  2.295024e+00   1.004716e-05   1.713168e-03   4.542195e-07   264
  2.303454e+00   8.570090e-06   0.000000e+00   9.539344e-07   48
  2.309110e+00   9.395100e-06   1.628943e-03   4.447635e-07   276
  2.314567e+00   9.454277e-06   1.476593e-03   5.209970e-07   192
  2.321860e+00   8.907447e-06   1.659366e-03   3.108474e-07   552
  2.330715e+00   9.718457e-06   4.069010e-08   6.772106e-07   120
  2.335978e+00   7.902473e-06   1.679687e-03   5.537873e-07   216
  2.340855e+00   9.163909e-06   4.069010e-08   6.299896e-07   120
  2.349569e+00   8.820381e-06   1.654080e-03   3.580714e-07   408
  2.357660e+00   7.125048e-06   3.596531e-08   1.976848e-06   24
  2.362678e+00   8.174808e-06   1.670919e-03   3.671912e-07   384
  2.369685e+00   8.151905e-06   1.632547e-03   4.811123e-07   240
  2.375770e+00   8.584015e-06   1.644502e-03   4.923150e-07   168
  2.384301e+00   8.104054e-06   0.000000e+00   6.934476e-07   120
  2.389801e+00   8.226761e-06   1.714308e-03   3.846029e-07   350
  2.398744e+00   8.505985e-06   2.822081e-03   3.590673e-07   384
  2.404088e+00   9.342787e-06   0.000000e+00   6.100463e-07   144
  2.413921e+00   8.049625e-06   3.390842e-08   4.286036e-07   288
  2.419055e+00   8.388531e-06   1.615394e-03   4.005805e-07   336
  2.426039e+00   7.931728e-06   1.470682e-03   5.499613e-07   168
  2.430220e+00   7.980646e-06   9.639558e-08   3.581638e-07   336
  2.438868e+00   7.570655e-06   1.526480e-03   4.442477e-07   288
  2.444062e+00   8.263143e-06   1.438335e-03   3.751688e-07   264
  2.452858e+00   7.936315e-06   0.000000e+00   4.779903e-07   240
  2.456075e+00   7.243371e-06   0.000000e+00   6.995479e-07   96
  2.467620e+00   7.379384e-06   1.956039e-03   3.600419e-07   360
  2.473008e+00   7.252309e-06   1.441936e-03   5.659919e-07   168
  2.479816e+00   7.248288e-06   1.571860e-03   3.449174e-07   456
  2.488014e+00   7.254304e-06   4.521123e-08   6.501434e-07   108
  2.492626e+00   7.739887e-06   1.577159e-03   4.761325e-07   264
  2.498378e+00   7.355030e-06   1.407083e-03   4.446435e-07   264
  2.506256e+00   7.198485e-06   1.327788e-03   3.712472e-07   312
  2.516065e+00   7.728520e-06   9.866910e-04   4.243064e-07   270
  2.520176e+00   7.252352e-06   1.252729e-03   4.447612e-07   240
  2.527567e+00   7.365818e-06   1.549783e-03   3.549304e-07   384
  2.532054e+00   6.631882e-06   5.086263e-08   4.917054e-07   192
  2.540769e+00   7.274262e-06   1.243495e-03   4.271866e-07   240
  2.545825e+00   7.227793e-06   1.534673e-03   3.646948e-07   336
  2.555333e+00   6.752836e-06   1.544942e-03   3.120702e-07   480
  2.563047e+00   7.438844e-06   3.390842e-08   7.453881e-07   72
  2.567356e+00   6.806082e-06   1.506459e-03   4.976934e-07   240
  2.573216e+00   6.701898e-06   1.415865e-03   4.007948e-07   312
  2.579934e+00   6.900792e-06   1.530210e-03   4.681014e-07   240
  2.590086e+00   6.883499e-06   1.162564e-03   3.232627e-07   408
  2.594104e+00   6.684251e-06   1.064628e-03   3.695025e-07   336
  2.601958e+00   6.846593e-06   1.351816e-03   4.168423e-07   264
  2.605818e+00   7.154948e-06   0.000000e+00   6.316885e-07   144
  2.616557e+00   6.637928e-06   1.873697e-03   3.369165e-07   464
  2.622215e+00   6.285314e-06   1.489973e-03   5.125294e-07   168
  2.627801e+00   6.646070e-06   1.357041e-03   4.260197e-07   336
  2.637897e+00   6.249340e-06   1.425837e-03   3.478184e-07   414
  2.643588e+00   6.767647e-06   1.484211e-03   4.177867e-07   216
  2.650879e+00   5.963035e-06   3.596531e-08   4.254325e-07   96
  2.653856e+00   6.552148e-06   8.809666e-08   3.736917e-07   384
  2.664284e+00   6.352107e-06   1.481344e-03   2.989389e-07   492
  2.669873e+00   6.135777e-06   1.448627e-03   3.671901e-07   240
  2.676189e+00   6.420142e-06   1.470864e-03   3.569511e-07   312
  2.684913e+00   6.999543e-06   1.470380e-03   6.017242e-07   192
  2.690439e+00   6.378178e-06   1.424976e-03   3.175897e-07   504
  2.697770e+00   6.213046e-06   9.433586e-04   3.456183e-07   408
  2.703542e+00   6.678943e-06   2.890096e-03   5.350808e-07   168
  2.710765e+00   5.739500e-06   1.372821e-03   3.646157e-07   288
  2.716826e+00   6.283626e-06   1.432656e-03   3.789058e-07   288
  2.723035e+00   6.349239e-06   1.440903e-03   3.616860e-07   432
  2.732042e+00   5.858222e-06   1.362614e-03   4.403484e-07   216
  2.736854e+00   6.092985e-06   1.359739e-03   3.897012e-07   360
  2.745421e+00   6.056635e-06   1.327092e-03   3.816809e-07   312
  2.753154e+00   5.056573e-06   0.000000e+00   7.229141e-07   48
  2.757611e+00   6.134724e-06   1.422834e-03   3.305234e-07   432
  2.765594e+00   6.451188e-06   2.373302e-03   3.368889e-07   414
  2.770308e+00   6.204631e-06   5.421333e-08   3.971585e-07   312
  2.779102e+00   6.152413e-06   2.082441e-03   3.086298e-07   528
  2.785037e+00   5.638000e-06   1.093105e-03   4.099279e-07   264
  2.792167e+00   6.008270e-06   1.296122e-03   2.979737e-07   480
  2.801483e+00   6.061649e-06   0.000000e+00   3.780825e-07   288
  2.805506e+00   5.740204e-06   1.392643e-03   5.257482e-07   168
  2.812867e+00   5.827241e-06   2.204550e-03   2.990713e-07   504
