# power spectrum of zeta (dimensionless)
# redshift z=-0.571210
# k              Pk             sigma(k)       sigma(Pk)      count
  1.256637e-01   4.938392e-10   0.000000e+00   6.314626e-12   6
  1.777153e-01   1.308658e-09   0.000000e+00   1.178656e-11   12
  2.176559e-01   2.275648e-09   2.384186e-09   3.909563e-11   8
  2.513274e-01   3.457837e-09   0.000000e+00   1.246038e-10   6
  2.809926e-01   4.686200e-09   4.495664e-09   6.958185e-11   24
  3.078120e-01   5.865938e-09   4.495664e-09   8.281479e-11   24
  3.554306e-01   8.444232e-09   0.000000e+00   2.056529e-10   12
  3.769911e-01   9.805714e-09   5.086263e-09   1.819985e-10   30
  3.973835e-01   1.116165e-08   0.000000e+00   2.359894e-10   24
  4.167794e-01   1.248285e-08   7.786718e-09   2.518932e-10   24
  4.353118e-01   1.396791e-08   4.768372e-09   5.012139e-10   8
  4.530869e-01   1.533419e-08   6.357829e-09   3.072195e-10   24
  4.701905e-01   1.641007e-08   0.000000e+00   2.560602e-10   48
  5.026548e-01   2.002855e-08   0.000000e+00   5.164507e-10   6
  5.181247e-01   2.016342e-08   6.357829e-09   2.773320e-10   48
  5.331460e-01   2.170867e-08   5.994218e-09   3.559746e-10   36
  5.477554e-01   2.260070e-08   6.357829e-09   5.074886e-10   24
  5.619852e-01   2.426892e-08   8.991328e-09   4.982275e-10   24
  5.758634e-01   2.554465e-08   0.000000e+00   3.801916e-10   48
  5.894150e-01   2.640665e-08   8.991328e-09   6.170311e-10   24
  6.156239e-01   2.862467e-08   8.991328e-09   7.152247e-10   24
  6.283185e-01   3.038591e-08   0.000000e+00   5.324513e-10   30
  6.407617e-01   3.171364e-08   0.000000e+00   4.130582e-10   72
  6.529678e-01   3.326925e-08   9.536743e-09   6.144063e-10   32
  6.767198e-01   3.468268e-08   0.000000e+00   4.941274e-10   72
  6.882885e-01   3.639318e-08   0.000000e+00   6.168450e-10   48
  7.108613e-01   3.714084e-08   0.000000e+00   9.889795e-10   12
  7.218830e-01   3.823789e-08   0.000000e+00   7.471395e-10   48
  7.327390e-01   3.887610e-08   0.000000e+00   6.244216e-10   48
  7.434365e-01   4.080638e-08   8.991328e-09   8.575213e-10   48
  7.539822e-01   4.059526e-08   1.017253e-08   1.027109e-09   30
  7.643825e-01   4.541806e-08   0.000000e+00   1.430841e-09   24
  7.746431e-01   4.356484e-08   1.895538e-08   8.151670e-10   72
  7.947671e-01   4.669191e-08   0.000000e+00   1.792375e-09   24
  8.046403e-01   4.567203e-08   0.000000e+00   7.929665e-10   96
  8.143939e-01   4.587227e-08   0.000000e+00   1.081004e-09   48
  8.240320e-01   4.571079e-08   1.557344e-08   1.490402e-09   24
  8.335587e-01   4.934596e-08   1.557344e-08   2.096024e-09   24
  8.429778e-01   4.787280e-08   0.000000e+00   9.636082e-10   72
  8.522927e-01   4.981512e-08   0.000000e+00   1.500384e-09   48
  8.706237e-01   4.764971e-08   9.536743e-09   1.490600e-09   8
  8.796459e-01   5.099853e-08   1.130281e-08   1.573423e-09   54
  8.885766e-01   5.096451e-08   0.000000e+00   1.097472e-09   84
  8.974184e-01   5.314099e-08   0.000000e+00   1.824234e-09   48
  9.061739e-01   5.179883e-08   1.271566e-08   2.057141e-09   24
  9.148456e-01   5.383771e-08   1.695421e-08   1.523588e-09   72
  9.234359e-01   5.417061e-08   0.000000e+00   1.389668e-09   96
  9.403811e-01   5.237459e-08   0.000000e+00   1.688239e-09   48
  9.487402e-01   5.301942e-08   0.000000e+00   1.798278e-09   48
  9.570263e-01   5.617328e-08   0.000000e+00   3.266595e-09   24
  9.652412e-01   5.507525e-08   0.000000e+00   1.627839e-09   72
  9.814649e-01   5.320790e-08   0.000000e+00   1.353167e-09   72
  9.894770e-01   5.569108e-08   0.000000e+00   1.478599e-09   96
  1.005310e+00   6.138124e-08   0.000000e+00   8.650407e-09   6
  1.013133e+00   5.651906e-08   0.000000e+00   1.617152e-09   96
  1.020897e+00   5.671073e-08   1.271566e-08   1.630281e-09   96
  1.028602e+00   5.573259e-08   0.000000e+00   3.098367e-09   24
  1.036249e+00   5.708929e-08   1.271566e-08   2.508744e-09   48
  1.043841e+00   5.844298e-08   0.000000e+00   1.905780e-09   96
  1.051378e+00   5.283688e-08   0.000000e+00   1.677105e-09   48
  1.066292e+00   5.843704e-08   1.198844e-08   3.175486e-09   36
  1.073671e+00   5.696597e-08   2.202416e-08   2.587710e-09   48
  1.081000e+00   5.690838e-08   2.491750e-08   1.644658e-09   120
  1.088280e+00   5.477746e-08   0.000000e+00   2.116551e-09   56
  1.095511e+00   5.356354e-08   1.271566e-08   2.735185e-09   24
  1.102695e+00   5.551535e-08   0.000000e+00   1.769873e-09   96
  1.109832e+00   5.380594e-08   0.000000e+00   2.143965e-09   48
  1.123970e+00   5.793901e-08   1.798266e-08   4.209644e-09   24
  1.130973e+00   5.566278e-08   0.000000e+00   1.765413e-09   102
  1.137933e+00   5.940121e-08   1.271566e-08   3.259389e-09   48
  1.144851e+00   5.561939e-08   0.000000e+00   2.184644e-09   72
  1.151727e+00   5.651933e-08   0.000000e+00   2.892498e-09   48
  1.158562e+00   5.645026e-08   0.000000e+00   2.948709e-09   48
  1.165357e+00   5.468102e-08   2.877225e-08   1.789765e-09   120
  1.178830e+00   4.984828e-08   1.798266e-08   2.608542e-09   24
  1.185509e+00   5.425177e-08   1.695421e-08   1.586917e-09   144
  1.192151e+00   5.317102e-08   2.034505e-08   1.707245e-09   120
  1.198755e+00   5.920424e-08   1.798266e-08   3.495798e-09   48
  1.211857e+00   5.304608e-08   1.798266e-08   2.630845e-09   48
  1.218355e+00   5.377092e-08   1.798266e-08   1.921766e-09   96
  1.235512e+00   5.138137e-08   3.015167e-03   2.204646e-09   72
  1.244007e+00   5.303891e-08   1.598458e-08   1.967954e-09   108
  1.250338e+00   5.049287e-08   0.000000e+00   2.150594e-09   72
  1.256637e+00   5.074446e-08   0.000000e+00   3.618528e-09   30
  1.262905e+00   5.115669e-08   0.000000e+00   1.528570e-09   168
  1.269141e+00   5.294637e-08   0.000000e+00   3.021099e-09   48
  1.281523e+00   5.112731e-08   0.000000e+00   2.337520e-09   72
  1.287670e+00   5.276025e-08   0.000000e+00   2.210490e-09   96
  1.293787e+00   5.252362e-08   3.390842e-08   2.547406e-09   72
  1.299875e+00   4.824683e-08   0.000000e+00   2.325142e-09   72
  1.310112e+00   5.058401e-08   2.784031e-03   2.045505e-09   104
  1.317972e+00   4.947959e-08   2.397687e-08   1.765614e-09   144
  1.335824e+00   5.147440e-08   4.021044e-08   2.181177e-09   96
  1.341721e+00   4.277081e-08   0.000000e+00   1.659235e-09   96
  1.351101e+00   4.677034e-08   2.864148e-03   1.750259e-09   120
  1.359261e+00   4.726228e-08   0.000000e+00   1.922426e-09   120
  1.365057e+00   4.829909e-08   0.000000e+00   2.487408e-09   72
  1.376577e+00   5.280379e-08   0.000000e+00   3.243134e-09   48
  1.382301e+00   4.305686e-08   3.130008e-08   2.230261e-09   78
  1.389623e+00   4.545581e-08   2.564571e-03   1.522913e-09   168
  1.404963e+00   4.710331e-08   2.936555e-08   1.777242e-09   144
  1.410572e+00   4.913368e-08   2.397687e-08   1.831663e-09   144
  1.426839e+00   4.366228e-08   1.476986e-03   1.597690e-09   156
  1.432787e+00   4.811274e-08   3.114687e-08   3.323355e-09   48
  1.438287e+00   4.637595e-08   2.034505e-08   1.987142e-09   120
  1.443766e+00   4.246689e-08   0.000000e+00   2.759456e-09   48
  1.453454e+00   4.328313e-08   2.260797e-03   1.397804e-09   216
  1.465478e+00   3.859964e-08   0.000000e+00   3.046434e-09   48
  1.470856e+00   4.391005e-08   1.798266e-08   2.265164e-09   96
  1.478502e+00   4.296230e-08   2.642094e-03   1.654027e-09   168
  1.486873e+00   4.122233e-08   1.798266e-08   2.937213e-09   48
  1.492174e+00   4.739920e-08   0.000000e+00   2.077136e-09   96
  1.497456e+00   3.456062e-08   0.000000e+00   2.530607e-09   48
  1.507964e+00   3.690310e-08   2.034505e-08   3.815903e-09   30
  1.513191e+00   4.378405e-08   0.000000e+00   2.231903e-09   96
  1.519439e+00   4.462976e-08   2.076451e-03   1.417963e-09   240
  1.527472e+00   5.310844e-08   2.240191e-03   4.329287e-09   32
  1.533921e+00   4.088587e-08   0.000000e+00   1.843521e-09   168
  1.539060e+00   4.153833e-08   0.000000e+00   1.952966e-09   120
  1.549286e+00   4.516038e-08   3.791077e-08   2.615366e-09   72
  1.554374e+00   4.008754e-08   1.695421e-08   1.890807e-09   144
  1.559446e+00   4.622754e-08   0.000000e+00   2.471117e-09   96
  1.564501e+00   3.779644e-08   0.000000e+00   2.088114e-09   96
  1.574562e+00   5.523053e-08   0.000000e+00   2.474873e-09   72
  1.579568e+00   3.815659e-08   2.543132e-08   2.183708e-09   96
  1.589534e+00   5.789624e-08   0.000000e+00   4.079679e-09   24
  1.594494e+00   4.039304e-08   0.000000e+00   1.639711e-09   192
  1.600334e+00   4.000985e-08   1.901066e-03   2.015977e-09   132
  1.609281e+00   4.393288e-08   0.000000e+00   2.540816e-09   96
  1.614180e+00   3.239221e-08   0.000000e+00   2.179837e-09   96
  1.619064e+00   3.262305e-08   2.034505e-08   1.961721e-09   120
  1.628788e+00   3.179243e-08   0.000000e+00   3.122330e-09   48
  1.636759e+00   4.820488e-08   2.303939e-03   1.644722e-09   222
  1.643266e+00   4.239742e-08   0.000000e+00   2.283101e-09   120
  1.648064e+00   2.915016e-08   3.114687e-08   4.196043e-09   24
  1.655050e+00   4.440202e-08   2.378000e-03   1.434502e-09   312
  1.670270e+00   4.866864e-08   2.229470e-03   3.233297e-09   72
  1.676563e+00   4.874490e-08   3.114687e-08   2.547491e-09   96
  1.683024e+00   4.171804e-08   2.270407e-03   1.969680e-09   192
  1.690632e+00   3.462196e-08   2.877225e-08   2.325308e-09   120
  1.695296e+00   4.540770e-08   0.000000e+00   2.305206e-09   144
  1.704585e+00   4.523961e-08   0.000000e+00   3.217225e-09   48
  1.711188e+00   4.104411e-08   2.282974e-03   1.455783e-09   336
  1.718425e+00   4.601110e-08   0.000000e+00   4.326974e-09   48
  1.727590e+00   4.170657e-08   0.000000e+00   1.924610e-09   192
  1.732155e+00   2.755250e-08   0.000000e+00   3.290953e-09   48
  1.745129e+00   3.376383e-08   1.584683e-03   3.322125e-09   56
  1.751580e+00   4.244602e-08   2.035272e-03   1.495399e-09   336
  1.759292e+00   4.466243e-08   2.260561e-08   3.341454e-09   54
  1.766010e+00   4.593145e-08   2.235459e-03   2.022521e-09   240
  1.779956e+00   4.892859e-08   2.140470e-03   2.237367e-09   228
  1.786017e+00   3.615022e-08   2.397687e-08   2.871254e-09   72
  1.791900e+00   4.901444e-08   2.076308e-03   2.548445e-09   144
  1.799230e+00   5.237017e-08   0.000000e+00   2.989032e-09   96
  1.803613e+00   4.349179e-08   2.877225e-08   2.088855e-09   240
  1.812348e+00   3.787371e-08   2.543132e-08   5.551082e-09   24
  1.817939e+00   4.404322e-08   1.961057e-03   1.653107e-09   336
  1.825371e+00   2.585133e-08   0.000000e+00   2.911707e-09   72
  1.832154e+00   4.979933e-08   2.133012e-03   2.706017e-09   168
  1.838302e+00   5.910910e-08   0.000000e+00   3.266785e-09   72
  1.846872e+00   5.285723e-08   0.000000e+00   3.496554e-09   96
  1.853509e+00   3.057480e-08   2.117011e-03   1.744916e-09   216
  1.859653e+00   4.134050e-08   0.000000e+00   2.824125e-09   96
  1.868125e+00   4.889881e-08   2.543132e-08   2.313152e-09   192
  1.872347e+00   4.908117e-08   2.397687e-08   2.599266e-09   144
  1.880762e+00   3.078487e-08   0.000000e+00   3.460684e-09   48
  1.886588e+00   4.602347e-08   2.041047e-03   2.308162e-09   246
  1.894505e+00   4.567463e-08   1.881878e-03   2.770408e-09   168
  1.901637e+00   4.520264e-08   4.983500e-08   3.373203e-09   120
  1.905784e+00   5.058249e-08   0.000000e+00   2.436378e-09   240
  1.914053e+00   6.063726e-08   0.000000e+00   5.894001e-09   24
  1.920640e+00   4.564000e-08   2.014384e-03   1.850954e-09   360
  1.928845e+00   6.575396e-08   2.005812e-03   3.577148e-09   120
  1.934568e+00   4.169534e-08   0.000000e+00   2.523115e-09   144
  1.938645e+00   5.873502e-08   0.000000e+00   4.597589e-09   96
  1.950825e+00   4.894961e-08   0.000000e+00   2.887139e-09   144
  1.954868e+00   5.394097e-08   0.000000e+00   3.410173e-09   132
  1.960551e+00   4.038220e-08   1.979707e-03   2.608148e-09   176
  1.968799e+00   4.404682e-08   1.999105e-03   2.049912e-09   312
  1.978954e+00   4.205598e-08   0.000000e+00   3.025884e-09   96
  1.982940e+00   3.541285e-08   0.000000e+00   2.448135e-09   144
  1.989055e+00   4.973167e-08   1.979053e-03   2.207782e-09   312
  1.998804e+00   2.993090e-08   0.000000e+00   3.843328e-09   48
  2.002750e+00   4.857606e-08   2.543132e-08   2.465194e-09   192
  2.010619e+00   1.102574e-07   0.000000e+00   1.290642e-08   6
  2.015848e+00   4.820471e-08   1.845802e-03   2.484798e-09   288
  2.024316e+00   5.316690e-08   1.950210e-03   2.951409e-09   192
  2.030159e+00   5.749062e-08   5.980883e-08   2.938411e-09   216
  2.034045e+00   5.096651e-08   0.000000e+00   4.586157e-09   72
  2.043725e+00   6.102824e-08   1.931689e-03   3.226502e-09   192
  2.050154e+00   4.782007e-08   1.434383e-03   2.497877e-09   288
  2.057204e+00   4.149376e-08   0.000000e+00   5.769392e-09   24
  2.062650e+00   4.359371e-08   1.889681e-03   1.778425e-09   456
  2.072499e+00   6.079386e-08   0.000000e+00   7.305847e-09   48
  2.078585e+00   5.261188e-08   1.861260e-03   2.899952e-09   240
  2.085579e+00   5.526380e-08   1.881013e-03   2.764584e-09   216
  2.091461e+00   5.195574e-08   0.000000e+00   3.852105e-09   72
  2.095233e+00   4.026599e-08   6.498988e-08   2.480073e-09   168
  2.105882e+00   4.491335e-08   1.398129e-03   2.386160e-09   288
  2.111855e+00   4.996554e-08   1.849965e-03   3.188005e-09   168
  2.121448e+00   4.205505e-08   0.000000e+00   2.825850e-09   192
  2.125166e+00   3.841451e-08   2.397687e-08   2.538151e-09   144
  2.132584e+00   6.627419e-08   2.397687e-08   7.266315e-09   36
  2.138874e+00   5.057247e-08   1.689411e-03   2.336080e-09   342
  2.144889e+00   5.338110e-08   1.734820e-03   3.999650e-09   144
  2.152621e+00   5.389556e-08   1.819392e-03   2.458621e-09   384
  2.162000e+00   4.888033e-08   4.983500e-08   3.459921e-09   120
  2.166643e+00   5.760678e-08   1.622368e-03   2.842688e-09   264
  2.172929e+00   5.272460e-08   8.042088e-08   3.516857e-09   192
  2.178848e+00   4.098057e-08   1.748412e-03   2.908982e-09   152
  2.183802e+00   5.304053e-08   4.795375e-08   4.445833e-09   144
  2.194222e+00   4.366235e-08   1.131589e-03   2.695387e-09   216
  2.199045e+00   5.518329e-08   1.512105e-03   2.635578e-09   312
  2.207535e+00   5.336535e-08   1.752500e-03   2.910250e-09   240
  2.212538e+00   4.016311e-08   2.543132e-08   3.078661e-09   96
  2.222033e+00   3.079464e-08   1.675517e-03   2.291470e-09   144
  2.227885e+00   4.874743e-08   1.646885e-03   2.035356e-09   456
  2.237379e+00   4.199655e-08   0.000000e+00   2.962179e-09   120
  2.240905e+00   4.861774e-08   0.000000e+00   3.664667e-09   144
  2.247941e+00   5.166747e-08   3.596531e-08   7.276163e-09   24
  2.252452e+00   4.037303e-08   1.583038e-03   1.900111e-09   336
  2.260253e+00   4.750055e-08   1.745876e-03   3.080505e-09   198
  2.267563e+00   4.775890e-08   1.697764e-03   2.258284e-09   432
  2.275867e+00   8.191694e-08   5.086263e-08   8.475901e-09   48
  2.280199e+00   5.464394e-08   1.498832e-03   2.428201e-09   384
  2.287976e+00   4.279627e-08   1.725473e-03   3.912517e-09   144
  2.295024e+00   5.823215e-08   1.713168e-03   3.291574e-09   264
  2.303454e+00   4.194989e-08   0.000000e+00   4.481195e-09   48
  2.309110e+00   4.889602e-08   1.628943e-03   2.766841e-09   276
  2.314567e+00   5.039166e-08   1.476593e-03   3.198733e-09   192
  2.321860e+00   4.568575e-08   1.659366e-03   1.795503e-09   552
  2.330715e+00   5.578392e-08   4.069010e-08   4.718695e-09   120
  2.335978e+00   3.141331e-08   1.679687e-03   1.985922e-09   216
  2.340855e+00   4.292296e-08   4.069010e-08   3.097140e-09   120
  2.349569e+00   4.850669e-08   1.654080e-03   2.235864e-09   408
  2.357660e+00   2.157832e-08   3.596531e-08   5.091629e-09   24
  2.362678e+00   4.186476e-08   1.670919e-03   1.950866e-09   384
  2.369685e+00   3.635466e-08   1.632547e-03   2.166449e-09   240
  2.375770e+00   4.995751e-08   1.644502e-03   3.194445e-09   168
  2.384301e+00   3.847212e-08   0.000000e+00   3.393344e-09   120
  2.389801e+00   4.536857e-08   1.714308e-03   2.407511e-09   350
  2.398744e+00   5.136264e-08   2.822081e-03   2.505079e-09   384
  2.404088e+00   5.851592e-08   0.000000e+00   4.867375e-09   144
  2.413921e+00   4.356606e-08   3.390842e-08   2.480484e-09   288
  2.419055e+00   4.770521e-08   1.615394e-03   2.690119e-09   336
  2.426039e+00   3.582995e-08   1.470682e-03   2.404758e-09   168
  2.430220e+00   4.791431e-08   9.639558e-08   2.427123e-09   336
  2.438868e+00   4.111145e-08   1.526480e-03   2.414553e-09   288
  2.444062e+00   5.163161e-08   1.438335e-03   2.859242e-09   264
  2.452858e+00   4.126745e-08   0.000000e+00   2.733711e-09   240
  2.456075e+00   3.887665e-08   0.000000e+00   3.581488e-09   96
  2.467620e+00   4.227929e-08   1.956039e-03   2.129173e-09   360
  2.473008e+00   4.331949e-08   1.441936e-03   3.382901e-09   168
  2.479816e+00   3.696572e-08   1.571860e-03   1.670381e-09   456
  2.488014e+00   3.622320e-08   4.521123e-08   3.072302e-09   108
  2.492626e+00   3.434611e-08   1.577159e-03   2.007486e-09   264
  2.498378e+00   3.840602e-08   1.407083e-03   2.213795e-09   264
  2.506256e+00   4.126160e-08   1.327788e-03   2.086072e-09   312
  2.516065e+00   4.494748e-08   9.866910e-04   2.764121e-09   270
  2.520176e+00   4.330087e-08   1.252729e-03   2.851908e-09   240
  2.527567e+00   4.445592e-08   1.549783e-03   2.430781e-09   384
  2.532054e+00   3.666710e-08   5.086263e-08   2.514857e-09   192
  2.540769e+00   4.551814e-08   1.243495e-03   2.974075e-09   240
  2.545825e+00   4.497677e-08   1.534673e-03   2.387739e-09   336
  2.555333e+00   3.935695e-08   1.544942e-03   1.780488e-09   480
  2.563047e+00   4.854998e-08   3.390842e-08   5.546365e-09   72
  2.567356e+00   4.210651e-08   1.506459e-03   3.004167e-09   240
  2.573216e+00   3.773634e-08   1.415865e-03   2.170199e-09   312
  2.579934e+00   3.389936e-08   1.530210e-03   1.910310e-09   240
  2.590086e+00   3.901058e-08   1.162564e-03   1.788282e-09   408
  2.594104e+00   3.800577e-08   1.064628e-03   1.976602e-09   336
  2.601958e+00   3.868850e-08   1.351816e-03   2.209463e-09   264
  2.605818e+00   3.046130e-08   0.000000e+00   2.182163e-09   144
  2.616557e+00   3.476288e-08   1.873697e-03   1.546498e-09   464
  2.622215e+00   3.384623e-08   1.489973e-03   2.442402e-09   168
  2.627801e+00   3.088155e-08   1.357041e-03   1.717236e-09   336
  2.637897e+00   3.464341e-08   1.425837e-03   1.695036e-09   414
  2.643588e+00   4.605083e-08   1.484211e-03   3.283323e-09   216
  2.650879e+00   5.603413e-08   3.596531e-08   5.049365e-09   96
  2.653856e+00   3.618387e-08   8.809666e-08   2.029935e-09   384
  2.664284e+00   3.732635e-08   1.481344e-03   1.683781e-09   492
  2.669873e+00   4.420393e-08   1.448627e-03   2.712012e-09   240
  2.676189e+00   3.970131e-08   1.470864e-03   2.161334e-09   312
  2.684913e+00   3.451154e-08   1.470380e-03   2.568109e-09   192
  2.690439e+00   3.583485e-08   1.424976e-03   1.603788e-09   504
  2.697770e+00   3.370183e-08   9.433586e-04   1.636312e-09   408
  2.703542e+00   3.139623e-08   2.890096e-03   2.163394e-09   168
  2.710765e+00   3.864806e-08   1.372821e-03   2.134651e-09   288
  2.716826e+00   3.594804e-08   1.432656e-03   1.913710e-09   288
  2.723035e+00   3.026137e-08   1.440903e-03   1.480699e-09   432
  2.732042e+00   3.180172e-08   1.362614e-03   2.034594e-09   216
  2.736854e+00   3.066824e-08   1.359739e-03   1.616032e-09   360
  2.745421e+00   3.231334e-08   1.327092e-03   1.752334e-09   312
  2.753154e+00   2.872226e-08   0.000000e+00   3.732303e-09   48
  2.757611e+00   3.376913e-08   1.422834e-03   1.478884e-09   432
  2.765594e+00   3.459644e-08   2.373302e-03   1.673040e-09   414
  2.770308e+00   3.495320e-08   5.421333e-08   1.995042e-09   312
  2.779102e+00   3.580708e-08   2.082441e-03   1.658369e-09   528
  2.785037e+00   3.275065e-08   1.093105e-03   2.149238e-09   264
  2.792167e+00   3.776389e-08   1.296122e-03   1.651717e-09   480
  2.801483e+00   3.568879e-08   0.000000e+00   2.009862e-09   288
  2.805506e+00   2.817950e-08   1.392643e-03   2.122258e-09   168
  2.812867e+00   3.474520e-08   2.204550e-03   1.525635e-09   504
