# power spectrum of delta
# redshift z=9.863284
# k              Pk             sigma(k)       sigma(Pk)      count
  5.011399e-03   6.823058e-07   7.667927e-04   1.327800e-07   18
  1.037418e-02   1.900066e-05   1.725047e-03   2.195132e-06   128
  1.616528e-02   8.429783e-05   1.646572e-03   4.759776e-06   314
  2.269071e-02   2.020047e-04   1.954354e-03   7.830426e-06   728
  2.897169e-02   3.862250e-04   1.717946e-03   1.297050e-05   1016
  3.518826e-02   5.362690e-04   1.880676e-03   1.323904e-05   1682
  4.169479e-02   8.036291e-04   1.831736e-03   1.690156e-05   2300
  4.790974e-02   1.021404e-03   1.770731e-03   1.918803e-05   2906
  5.429022e-02   1.372590e-03   1.892687e-03   2.260358e-05   4040
  6.068098e-02   1.769206e-03   1.775551e-03   2.668889e-05   4712
  6.698900e-02   2.252010e-03   1.857705e-03   2.902388e-05   6002
  7.346135e-02   2.660406e-03   1.857594e-03   3.164420e-05   7256
  7.977379e-02   3.153001e-03   1.772571e-03   3.564256e-05   8120
  8.609019e-02   3.448011e-03   1.864951e-03   3.458743e-05   9950
  9.253636e-02   3.792414e-03   1.853578e-03   3.507646e-05   11384
  9.885187e-02   4.032548e-03   1.809244e-03   3.626968e-05   12666
  1.052712e-01   4.440553e-03   1.889168e-03   3.563545e-05   15104
  1.117654e-01   4.894865e-03   1.850532e-03   3.844993e-05   16616
  1.180754e-01   5.561798e-03   1.799489e-03   4.173385e-05   18026
  1.244216e-01   6.098349e-03   1.853405e-03   4.179957e-05   20696
  1.308065e-01   6.616619e-03   1.827918e-03   4.451662e-05   22436
  1.371558e-01   7.254697e-03   1.845873e-03   4.622289e-05   24962
  1.435394e-01   7.601027e-03   1.831283e-03   4.555923e-05   27176
  1.499133e-01   7.829572e-03   1.847268e-03   4.555267e-05   29810
  1.562775e-01   8.143783e-03   1.828450e-03   4.595184e-05   32120
  1.626776e-01   8.440495e-03   1.865216e-03   4.498476e-05   35432
  1.690383e-01   8.973215e-03   1.814577e-03   4.643992e-05   37238
  1.754019e-01   9.488102e-03   1.856016e-03   4.687744e-05   41072
  1.817869e-01   9.986742e-03   1.834293e-03   4.840199e-05   43472
  1.881565e-01   1.069339e-02   1.848176e-03   4.945071e-05   47042
  1.945298e-01   1.137949e-02   1.829223e-03   5.169480e-05   49712
  2.008693e-01   1.182752e-02   1.840592e-03   5.163131e-05   53226
  2.072637e-01   1.195401e-02   1.853753e-03   4.982545e-05   57320
  2.136558e-01   1.237674e-02   1.831629e-03   5.070381e-05   60092
  2.200056e-01   1.274327e-02   1.839426e-03   5.056502e-05   63914
  2.263950e-01   1.301852e-02   1.849752e-03   4.963419e-05   68192
  2.327751e-01   1.345144e-02   1.833934e-03   5.035520e-05   71336
  2.391397e-01   1.388997e-02   1.845607e-03   5.044972e-05   75818
  2.455297e-01   1.441935e-02   1.844019e-03   5.125871e-05   79880
  2.518964e-01   1.499893e-02   1.834462e-03   5.175672e-05   83642
  2.582661e-01   1.563014e-02   1.840779e-03   5.260907e-05   88316
  2.646730e-01   1.600686e-02   1.859422e-03   5.255275e-05   93488
  2.710484e-01   1.634461e-02   1.827184e-03   5.273473e-05   96458
  2.773871e-01   1.667969e-02   1.829038e-03   5.302525e-05   101264
  2.837816e-01   1.693960e-02   1.862873e-03   5.155853e-05   107696
  2.901819e-01   1.721448e-02   1.837217e-03   5.175487e-05   111170
  2.965233e-01   1.780289e-02   1.822285e-03   5.254177e-05   115232
  3.028941e-01   1.817797e-02   1.855375e-03   5.194738e-05   122310
  3.093019e-01   1.856275e-02   1.843350e-03   5.216147e-05   126944
  3.156739e-01   1.911729e-02   1.828600e-03   5.286542e-05   131192
  3.220432e-01   1.953687e-02   1.844535e-03   5.297973e-05   137618
  3.284234e-01   2.000195e-02   1.836674e-03   5.291460e-05   142448
  3.347979e-01   2.022874e-02   1.844704e-03   5.240638e-05   148520
  3.411627e-01   2.058450e-02   1.831436e-03   5.294606e-05   153254
  3.475446e-01   2.100624e-02   1.852010e-03   5.250319e-05   160760
  3.539284e-01   2.111702e-02   1.835751e-03   5.169633e-05   165290
  3.603019e-01   2.169212e-02   1.840148e-03   5.236570e-05   171992
  3.666828e-01   2.201804e-02   1.840217e-03   5.249873e-05   177800
  3.730569e-01   2.245540e-02   1.843032e-03   5.237556e-05   184322
  3.794439e-01   2.284606e-02   1.841595e-03   5.250776e-05   190832
  3.858239e-01   2.316332e-02   1.839260e-03   5.259863e-05   196772
  3.921872e-01   2.370250e-02   1.836453e-03   5.275423e-05   202970
  3.985536e-01   2.407060e-02   1.839266e-03   5.271519e-05   210056
  4.049173e-01   2.442571e-02   1.832832e-03   5.267569e-05   216210
  4.112896e-01   2.467926e-02   1.841640e-03   5.205341e-05   224168
  4.176700e-01   2.483759e-02   1.840761e-03   5.196575e-05   230792
  4.240565e-01   2.542006e-02   1.846256e-03   5.221573e-05   238778
  4.304312e-01   2.554972e-02   1.831772e-03   5.161718e-05   243956
  4.367939e-01   2.604669e-02   1.845141e-03   5.182784e-05   252680
  4.431746e-01   2.642174e-02   1.842020e-03   5.195722e-05   260066
  4.495713e-01   2.675882e-02   1.849294e-03   5.165202e-05   268712
  4.559494e-01   2.712305e-02   1.834336e-03   5.180623e-05   274034
  4.623270e-01   2.727431e-02   1.847366e-03   5.126905e-05   283904
  4.687088e-01   2.764698e-02   1.837425e-03   5.142548e-05   290048
  4.750707e-01   2.788273e-02   1.836659e-03   5.132450e-05   297950
  4.814434e-01   2.828397e-02   1.842026e-03   5.135963e-05   306968
  4.878269e-01   2.882498e-02   1.843240e-03   5.148793e-05   315320
  4.942006e-01   2.883246e-02   1.835899e-03   5.084937e-05   322346
  5.005701e-01   2.924826e-02   1.842589e-03   5.071734e-05   331664
  5.069538e-01   2.950007e-02   1.844896e-03   5.048114e-05   340818
  5.133346e-01   2.999532e-02   1.837322e-03   5.089043e-05   348164
  5.197083e-01   3.027643e-02   1.843548e-03   5.070327e-05   357584
  5.260929e-01   3.060124e-02   1.846059e-03   5.041676e-05   367106
  5.324635e-01   3.074927e-02   1.832285e-03   5.017939e-05   373376
  5.388350e-01   3.102738e-02   1.848023e-03   4.989014e-05   385376
  5.452233e-01   3.138779e-02   1.842356e-03   4.987774e-05   393650
  5.516038e-01   3.160923e-02   1.840588e-03   4.982552e-05   402704
  5.579656e-01   3.185161e-02   1.830970e-03   4.968129e-05   409910
  5.643320e-01   3.225721e-02   1.843407e-03   4.971276e-05   422024
  5.707212e-01   3.240421e-02   1.846526e-03   4.930259e-05   432176
  5.771022e-01   3.276593e-02   1.837404e-03   4.945566e-05   440066
  5.834769e-01   3.301154e-02   1.841263e-03   4.922086e-05   450680
  5.898365e-01   3.333418e-02   1.831084e-03   4.924088e-05   457856
  5.962115e-01   3.363468e-02   1.848347e-03   4.893166e-05   472538
  6.026013e-01   3.401411e-02   1.839689e-03   4.905080e-05   480140
  6.089752e-01   3.413836e-02   1.841279e-03   4.884994e-05   490842
  6.153517e-01   3.452724e-02   1.838382e-03   4.883240e-05   500744
  6.217295e-01   3.467073e-02   1.842392e-03   4.842774e-05   511856
  6.281145e-01   3.501836e-02   1.844734e-03   4.841393e-05   523202
  6.344991e-01   3.531528e-02   1.840396e-03   4.857271e-05   532688
  6.408638e-01   3.555903e-02   1.834541e-03   4.841932e-05   541520
  6.472341e-01   3.581474e-02   1.842653e-03   4.823007e-05   555110
  6.536136e-01   3.599589e-02   1.839126e-03   4.771466e-05   564944
  6.599884e-01   3.617489e-02   1.839832e-03   4.784935e-05   576434
  6.663740e-01   3.646007e-02   1.844405e-03   4.762870e-05   588848
  6.727501e-01   3.670334e-02   1.838623e-03   4.755340e-05   597704
  6.791236e-01   3.703863e-02   1.842386e-03   4.762725e-05   610946
  6.855006e-01   3.730093e-02   1.837794e-03   4.734630e-05   620852
  6.918722e-01   3.742311e-02   1.841901e-03   4.726707e-05   633530
  6.982524e-01   3.766147e-02   1.841844e-03   4.694421e-05   645704
  7.046316e-01   3.796277e-02   1.840565e-03   4.685357e-05   656744
  7.110074e-01   3.819359e-02   1.841941e-03   4.688463e-05   669162
  7.173906e-01   3.847593e-02   1.843286e-03   4.652049e-05   681992
  7.237681e-01   3.859964e-02   1.838959e-03   4.658364e-05   692360
  7.301485e-01   3.889036e-02   1.844364e-03   4.630367e-05   707006
  7.365206e-01   3.908570e-02   1.834135e-03   4.616715e-05   714944
  7.428835e-01   3.946306e-02   1.841775e-03   4.618878e-05   730346
  7.492606e-01   3.964447e-02   1.838962e-03   4.612994e-05   742616
  7.556415e-01   3.981873e-02   1.843530e-03   4.587251e-05   756536
  7.620128e-01   4.002224e-02   1.836595e-03   4.575455e-05   766418
  7.683917e-01   4.018944e-02   1.845753e-03   4.535880e-05   783392
  7.747614e-01   4.049458e-02   1.833632e-03   4.557560e-05   790412
  7.811334e-01   4.064033e-02   1.848120e-03   4.513689e-05   810314
  7.875277e-01   4.086567e-02   1.843702e-03   4.512853e-05   821960
  7.938987e-01   4.115797e-02   1.834976e-03   4.519849e-05   831266
  8.002712e-01   4.116357e-02   1.843706e-03   4.478576e-05   848960
  8.066557e-01   4.142882e-02   1.842629e-03   4.479826e-05   861488
  8.130204e-01   4.166383e-02   1.833334e-03   4.485592e-05   871194
  8.193985e-01   4.180944e-02   1.847247e-03   4.427296e-05   891788
  8.257796e-01   4.196681e-02   1.838008e-03   4.428326e-05   900416
  8.321422e-01   4.227753e-02   1.836250e-03   4.424205e-05   914306
  8.385264e-01   4.244996e-02   1.847988e-03   4.398167e-05   933992
  8.449011e-01   4.260480e-02   1.834294e-03   4.404547e-05   940826
  8.512701e-01   4.287189e-02   1.842364e-03   4.388141e-05   960224
  8.576621e-01   4.298986e-02   1.846556e-03   4.368845e-05   976316
  8.640381e-01   4.320149e-02   1.835724e-03   4.359300e-05   985010
  8.704114e-01   4.342451e-02   1.843336e-03   4.346225e-05   1004024
  8.767898e-01   4.351962e-02   1.839706e-03   4.340019e-05   1016288
  8.831639e-01   4.380967e-02   1.840690e-03   4.325899e-05   1032290
  8.895470e-01   4.388455e-02   1.843156e-03   4.299835e-05   1048640
  8.959130e-01   4.402056e-02   1.831919e-03   4.277425e-05   1057250
  9.022937e-01   4.429684e-02   1.849588e-03   4.269463e-05   1083140
  9.086870e-01   4.445920e-02   1.840763e-03   4.278707e-05   1092248
  9.150555e-01   4.458813e-02   1.837510e-03   4.256730e-05   1105914
  9.214310e-01   4.471195e-02   1.841822e-03   4.228618e-05   1124744
  9.278120e-01   4.498807e-02   1.841202e-03   4.225107e-05   1139120
  9.341841e-01   4.510712e-02   1.838536e-03   4.209011e-05   1153490
  9.405650e-01   4.531274e-02   1.844187e-03   4.206357e-05   1172936
  9.469357e-01   4.551491e-02   1.834491e-03   4.212035e-05   1182158
  9.533110e-01   4.561168e-02   1.846126e-03   4.159850e-05   1206392
  9.596894e-01   4.564905e-02   1.835525e-03   4.148541e-05   1215224
  9.660641e-01   4.592646e-02   1.844936e-03   4.133959e-05   1237874
  9.724505e-01   4.605994e-02   1.841050e-03   4.125762e-05   1251800
  9.788233e-01   4.608717e-02   1.838619e-03   4.113862e-05   1265792
  9.851993e-01   4.634865e-02   1.843109e-03   4.105407e-05   1286306
  9.915793e-01   4.647268e-02   1.838809e-03   4.092677e-05   1299764
  9.979438e-01   4.665123e-02   1.836769e-03   4.083620e-05   1314554
  1.004319e+00   4.675724e-02   1.843595e-03   4.057515e-05   1337288
  1.010703e+00   4.699821e-02   1.840912e-03   4.056313e-05   1351304
  1.017077e+00   4.703821e-02   1.841769e-03   4.028343e-05   1369026
  1.023461e+00   4.722958e-02   1.843478e-03   4.021928e-05   1388456
  1.029842e+00   4.738358e-02   1.840406e-03   4.025665e-05   1402700
  1.036211e+00   4.750472e-02   1.837802e-03   4.006579e-05   1418282
  1.042587e+00   4.773753e-02   1.843596e-03   3.994195e-05   1440272
  1.048964e+00   4.776542e-02   1.838705e-03   3.977035e-05   1454114
  1.055341e+00   4.790236e-02   1.842603e-03   3.964153e-05   1475480
  1.061720e+00   4.815720e-02   1.840520e-03   3.956737e-05   1490936
  1.068091e+00   4.811783e-02   1.838519e-03   3.930544e-05   1507826
  1.074472e+00   4.840503e-02   1.844275e-03   3.932672e-05   1530764
  1.080850e+00   4.833456e-02   1.839052e-03   3.908119e-05   1543424
  1.087222e+00   4.856643e-02   1.841688e-03   3.903455e-05   1564946
  1.093594e+00   4.870460e-02   1.835875e-03   3.896779e-05   1578536
  1.099970e+00   4.874866e-02   1.845670e-03   3.867840e-05   1604882
  1.106358e+00   4.882643e-02   1.842454e-03   3.854204e-05   1621304
  1.112736e+00   4.899634e-02   1.839545e-03   3.857048e-05   1637024
  1.119103e+00   4.926594e-02   1.837794e-03   3.846098e-05   1654134
  1.125480e+00   4.933067e-02   1.844256e-03   3.830338e-05   1679168
  1.131864e+00   4.930385e-02   1.841903e-03   3.803694e-05   1695944
  1.138235e+00   4.945190e-02   1.836568e-03   3.807228e-05   1710602
  1.144612e+00   4.962192e-02   1.844777e-03   3.783281e-05   1737056
  1.150994e+00   4.976757e-02   1.840390e-03   3.781093e-05   1752602
  1.157370e+00   4.976215e-02   1.839227e-03   3.757858e-05   1772024
  1.163752e+00   4.991949e-02   1.844090e-03   3.747197e-05   1795364
  1.170126e+00   4.999044e-02   1.836467e-03   3.744254e-05   1807634
  1.176490e+00   5.007429e-02   1.836183e-03   3.726885e-05   1827608
  1.182859e+00   5.027127e-02   1.840789e-03   3.726399e-05   1850984
  1.189240e+00   5.031578e-02   1.844107e-03   3.700724e-05   1874618
  1.195619e+00   5.045826e-02   1.838445e-03   3.694414e-05   1889504
  1.202001e+00   5.056967e-02   1.845373e-03   3.681884e-05   1916870
  1.208383e+00   5.052848e-02   1.838254e-03   3.663755e-05   1929728
  1.214760e+00   5.073225e-02   1.843674e-03   3.650175e-05   1955408
  1.221131e+00   5.076259e-02   1.834427e-03   3.643812e-05   1966842
  1.227503e+00   5.076414e-02   1.843005e-03   3.615654e-05   1996640
  1.233886e+00   5.088092e-02   1.842690e-03   3.610735e-05   2016392
  1.240265e+00   5.105243e-02   1.839730e-03   3.609796e-05   2034722
  1.246641e+00   5.114572e-02   1.840813e-03   3.600799e-05   2056460
  1.253014e+00   5.118161e-02   1.838931e-03   3.587469e-05   2075186
  1.259388e+00   5.124343e-02   1.840566e-03   3.571880e-05   2099096
  1.265761e+00   5.132542e-02   1.837910e-03   3.559463e-05   2116832
  1.272138e+00   5.146090e-02   1.844119e-03   3.542745e-05   2145146
  1.278526e+00   5.148575e-02   1.844128e-03   3.529118e-05   2166776
  1.284904e+00   5.159882e-02   1.838822e-03   3.524981e-05   2181848
  1.291273e+00   5.172228e-02   1.838785e-03   3.519992e-05   2203766
  1.297646e+00   5.177969e-02   1.840619e-03   3.504173e-05   2227664
  1.304025e+00   5.175337e-02   1.842381e-03   3.483901e-05   2252138
  1.310403e+00   5.189838e-02   1.839825e-03   3.482598e-05   2271152
  1.316777e+00   5.197324e-02   1.840536e-03   3.464689e-05   2293256
  1.323154e+00   5.196997e-02   1.842085e-03   3.450913e-05   2318130
  1.329536e+00   5.213793e-02   1.841956e-03   3.449181e-05   2340824
  1.335910e+00   5.218175e-02   1.838342e-03   3.433146e-05   2357990
  1.342292e+00   5.218577e-02   1.846396e-03   3.414034e-05   2391176
  1.348671e+00   5.231151e-02   1.837209e-03   3.417955e-05   2401808
  1.355040e+00   5.245425e-02   1.840258e-03   3.401868e-05   2428442
  1.361418e+00   5.242493e-02   1.842645e-03   3.384819e-05   2454752
  1.367798e+00   5.243449e-02   1.841270e-03   3.375205e-05   2475872
  1.374172e+00   5.251843e-02   1.838763e-03   3.366825e-05   2495822
  1.380543e+00   5.261308e-02   1.839940e-03   3.363014e-05   2520248
  1.386922e+00   5.255320e-02   1.844043e-03   3.338119e-05   2549186
  1.393299e+00   5.275743e-02   1.837661e-03   3.336564e-05   2564768
  1.399672e+00   5.278353e-02   1.841284e-03   3.327034e-05   2592968
  1.406054e+00   5.277684e-02   1.843378e-03   3.310448e-05   2619818
  1.412431e+00   5.290307e-02   1.838027e-03   3.305473e-05   2636384
  1.418803e+00   5.292179e-02   1.840293e-03   3.293741e-05   2662220
  1.425180e+00   5.296992e-02   1.842524e-03   3.278756e-05   2689770
  1.431560e+00   5.296672e-02   1.840994e-03   3.267799e-05   2712296
  1.437933e+00   5.306246e-02   1.838431e-03   3.260835e-05   2732618
  1.444312e+00   5.308543e-02   1.843932e-03   3.233607e-05   2765264
  1.450695e+00   5.310115e-02   1.840894e-03   3.232479e-05   2784824
  1.457066e+00   5.316287e-02   1.837138e-03   3.231605e-05   2804162
  1.463445e+00   5.324330e-02   1.844971e-03   3.209838e-05   2840612
  1.469825e+00   5.333843e-02   1.839130e-03   3.213653e-05   2855576
  1.476198e+00   5.331023e-02   1.840533e-03   3.192684e-05   2883458
  1.482571e+00   5.329027e-02   1.838217e-03   3.183912e-05   2904128
  1.488946e+00   5.336048e-02   1.843378e-03   3.166570e-05   2937026
  1.495325e+00   5.342966e-02   1.839218e-03   3.163210e-05   2956976
  1.501703e+00   5.343676e-02   1.841967e-03   3.149134e-05   2986472
  1.508082e+00   5.352069e-02   1.840166e-03   3.142410e-05   3008918
  1.514460e+00   5.351739e-02   1.841773e-03   3.130061e-05   3036752
  1.520836e+00   5.349549e-02   1.839884e-03   3.116594e-05   3058376
  1.527209e+00   5.368968e-02   1.839616e-03   3.118198e-05   3084210
  1.533583e+00   5.357500e-02   1.840948e-03   3.099192e-05   3111848
  1.539960e+00   5.360348e-02   1.841348e-03   3.086378e-05   3138890
  1.546339e+00   5.372476e-02   1.840626e-03   3.083564e-05   3164516
  1.552719e+00   5.373150e-02   1.842638e-03   3.067657e-05   3192656
  1.559097e+00   5.375519e-02   1.840555e-03   3.062939e-05   3215618
  1.565473e+00   5.372781e-02   1.840732e-03   3.049778e-05   3242888
  1.571846e+00   5.372479e-02   1.839114e-03   3.038961e-05   3265448
  1.578224e+00   5.381921e-02   1.843575e-03   3.028584e-05   3300842
  1.584604e+00   5.384134e-02   1.839884e-03   3.023942e-05   3321008
  1.590977e+00   5.378089e-02   1.839336e-03   3.010044e-05   3346406
  1.597352e+00   5.385152e-02   1.841596e-03   3.005867e-05   3377984
  1.603728e+00   5.376708e-02   1.839551e-03   2.989699e-05   3400352
  1.610103e+00   5.389648e-02   1.841321e-03   2.979748e-05   3431450
  1.616483e+00   5.385201e-02   1.841519e-03   2.969138e-05   3458768
  1.622859e+00   5.393351e-02   1.841183e-03   2.962994e-05   3484088
  1.629231e+00   5.395276e-02   1.838425e-03   2.955316e-05   3508218
  1.635610e+00   5.391328e-02   1.843946e-03   2.937776e-05   3545924
  1.641992e+00   5.396356e-02   1.841053e-03   2.935648e-05   3567530
  1.648369e+00   5.403118e-02   1.840183e-03   2.929107e-05   3595040
  1.654744e+00   5.396940e-02   1.840167e-03   2.913212e-05   3621176
  1.661115e+00   5.405058e-02   1.839521e-03   2.907407e-05   3647738
  1.667490e+00   5.396878e-02   1.841438e-03   2.890295e-05   3680480
  1.673870e+00   5.399361e-02   1.842082e-03   2.886203e-05   3709712
  1.680248e+00   5.403431e-02   1.840008e-03   2.876716e-05   3734702
  1.686623e+00   5.409931e-02   1.840362e-03   2.872408e-05   3762776
  1.692996e+00   5.404628e-02   1.839854e-03   2.861027e-05   3790514
  1.699371e+00   5.398347e-02   1.839908e-03   2.845926e-05   3820352
  1.705752e+00   5.400762e-02   1.844068e-03   2.837160e-05   3856016
  1.712131e+00   5.401842e-02   1.839690e-03   2.829633e-05   3876818
  1.718506e+00   5.401944e-02   1.839874e-03   2.822080e-05   3906332
  1.724882e+00   5.405346e-02   1.841963e-03   2.813150e-05   3938216
  1.731260e+00   5.409162e-02   1.840685e-03   2.805757e-05   3966354
  1.737636e+00   5.391048e-02   1.839695e-03   2.791716e-05   3993536
  1.744011e+00   5.398033e-02   1.840344e-03   2.784701e-05   4024034
  1.750392e+00   5.403993e-02   1.843071e-03   2.774409e-05   4060208
  1.756773e+00   5.398853e-02   1.840812e-03   2.766007e-05   4083632
  1.763145e+00   5.399854e-02   1.837811e-03   2.758134e-05   4107062
  1.769521e+00   5.394975e-02   1.842771e-03   2.743323e-05   4148072
  1.775893e+00   5.397550e-02   1.836707e-03   2.740528e-05   4163456
  1.782267e+00   5.396638e-02   1.842476e-03   2.731898e-05   4207994
  1.788652e+00   5.391274e-02   1.843367e-03   2.714532e-05   4239152
  1.795029e+00   5.397586e-02   1.839132e-03   2.715329e-05   4259426
  1.801407e+00   5.401445e-02   1.842524e-03   2.707489e-05   4299488
  1.807788e+00   5.394131e-02   1.840660e-03   2.694753e-05   4323692
  1.814162e+00   5.389443e-02   1.840093e-03   2.685050e-05   4353242
  1.820541e+00   5.393382e-02   1.841694e-03   2.675711e-05   4388792
