# power spectrum of delta
# redshift z=96.079122
# k              Pk             sigma(k)       sigma(Pk)      count
  5.011399e-03   1.537378e-08   7.667927e-04   2.857939e-09   18
  1.037418e-02   2.833570e-07   1.725047e-03   3.212138e-08   128
  1.616528e-02   1.163231e-06   1.646572e-03   6.531719e-08   314
  2.269071e-02   2.703271e-06   1.954354e-03   1.044635e-07   728
  2.897169e-02   5.112092e-06   1.717946e-03   1.716184e-07   1016
  3.518826e-02   7.053129e-06   1.880676e-03   1.738920e-07   1682
  4.169479e-02   1.053649e-05   1.831736e-03   2.219911e-07   2300
  4.790974e-02   1.335141e-05   1.770731e-03   2.508938e-07   2906
  5.429022e-02   1.795725e-05   1.892687e-03   2.961414e-07   4040
  6.068098e-02   2.305946e-05   1.775551e-03   3.482797e-07   4712
  6.698900e-02   2.939295e-05   1.857705e-03   3.779868e-07   6002
  7.346135e-02   3.469152e-05   1.857594e-03   4.121437e-07   7256
  7.977379e-02   4.105335e-05   1.772571e-03   4.633373e-07   8120
  8.609019e-02   4.492774e-05   1.864951e-03   4.506932e-07   9950
  9.253636e-02   4.938455e-05   1.853578e-03   4.565087e-07   11384
  9.885187e-02   5.250493e-05   1.809244e-03   4.717986e-07   12666
  1.052712e-01   5.773910e-05   1.889168e-03   4.629158e-07   15104
  1.117654e-01   6.371027e-05   1.850532e-03   5.001237e-07   16616
  1.180754e-01   7.240315e-05   1.799489e-03   5.435773e-07   18026
  1.244216e-01   7.945241e-05   1.853405e-03   5.444888e-07   20696
  1.308065e-01   8.620980e-05   1.827918e-03   5.800252e-07   22436
  1.371558e-01   9.460434e-05   1.845873e-03   6.043569e-07   24962
  1.435394e-01   9.900908e-05   1.831283e-03   5.940415e-07   27176
  1.499133e-01   1.019892e-04   1.847268e-03   5.935103e-07   29810
  1.562775e-01   1.059980e-04   1.828450e-03   5.988046e-07   32120
  1.626776e-01   1.096272e-04   1.865216e-03   5.840243e-07   35432
  1.690383e-01   1.167656e-04   1.814577e-03   6.060291e-07   37238
  1.754019e-01   1.235095e-04   1.856016e-03   6.096273e-07   41072
  1.817869e-01   1.299730e-04   1.834293e-03   6.298844e-07   43472
  1.881565e-01   1.391880e-04   1.848176e-03   6.435903e-07   47042
  1.945298e-01   1.485355e-04   1.829223e-03   6.729499e-07   49712
  2.008693e-01   1.539147e-04   1.840592e-03   6.735464e-07   53226
  2.072637e-01   1.558551e-04   1.853753e-03   6.490530e-07   57320
  2.136558e-01   1.613622e-04   1.831629e-03   6.612947e-07   60092
  2.200056e-01   1.660083e-04   1.839426e-03   6.583941e-07   63914
  2.263950e-01   1.695518e-04   1.849752e-03   6.467640e-07   68192
  2.327751e-01   1.753073e-04   1.833934e-03   6.572831e-07   71336
  2.391397e-01   1.808887e-04   1.845607e-03   6.570967e-07   75818
  2.455297e-01   1.876593e-04   1.844019e-03   6.660103e-07   79880
  2.518964e-01   1.957125e-04   1.834462e-03   6.753040e-07   83642
  2.582661e-01   2.035276e-04   1.840779e-03   6.832538e-07   88316
  2.646730e-01   2.086317e-04   1.859422e-03   6.845126e-07   93488
  2.710484e-01   2.131389e-04   1.827184e-03   6.858616e-07   96458
  2.773871e-01   2.176956e-04   1.829038e-03   6.934253e-07   101264
  2.837816e-01   2.212636e-04   1.862873e-03   6.726572e-07   107696
  2.901819e-01   2.241721e-04   1.837217e-03   6.725526e-07   111170
  2.965233e-01   2.323962e-04   1.822285e-03   6.834854e-07   115232
  3.028941e-01   2.370813e-04   1.855375e-03   6.782024e-07   122310
  3.093019e-01   2.424411e-04   1.843350e-03   6.807639e-07   126944
  3.156739e-01   2.499365e-04   1.828600e-03   6.904806e-07   131192
  3.220432e-01   2.558549e-04   1.844535e-03   6.937990e-07   137618
  3.284234e-01   2.613020e-04   1.836674e-03   6.915977e-07   142448
  3.347979e-01   2.645463e-04   1.844704e-03   6.848456e-07   148520
  3.411627e-01   2.698849e-04   1.831436e-03   6.947108e-07   153254
  3.475446e-01   2.751955e-04   1.852010e-03   6.888890e-07   160760
  3.539284e-01   2.760977e-04   1.835751e-03   6.745910e-07   165290
  3.603019e-01   2.831814e-04   1.840148e-03   6.841748e-07   171992
  3.666828e-01   2.881229e-04   1.840217e-03   6.860525e-07   177800
  3.730569e-01   2.941773e-04   1.843032e-03   6.876993e-07   184322
  3.794439e-01   2.991312e-04   1.841595e-03   6.877882e-07   190832
  3.858239e-01   3.036617e-04   1.839260e-03   6.897790e-07   196772
  3.921872e-01   3.101257e-04   1.836453e-03   6.904655e-07   202970
  3.985536e-01   3.156330e-04   1.839266e-03   6.893282e-07   210056
  4.049173e-01   3.203373e-04   1.832832e-03   6.890572e-07   216210
  4.112896e-01   3.244005e-04   1.841640e-03   6.837381e-07   224168
  4.176700e-01   3.266023e-04   1.840761e-03   6.832064e-07   230792
  4.240565e-01   3.335856e-04   1.846256e-03   6.843209e-07   238778
  4.304312e-01   3.355121e-04   1.831772e-03   6.784904e-07   243956
  4.367939e-01   3.424909e-04   1.845141e-03   6.812226e-07   252680
  4.431746e-01   3.466324e-04   1.842020e-03   6.807165e-07   260066
  4.495713e-01   3.517562e-04   1.849294e-03   6.785959e-07   268712
  4.559494e-01   3.576602e-04   1.834336e-03   6.831112e-07   274034
  4.623270e-01   3.587761e-04   1.847366e-03   6.745195e-07   283904
  4.687088e-01   3.641629e-04   1.837425e-03   6.753287e-07   290048
  4.750707e-01   3.674101e-04   1.836659e-03   6.761589e-07   297950
  4.814434e-01   3.727485e-04   1.842026e-03   6.775452e-07   306968
  4.878269e-01   3.797670e-04   1.843240e-03   6.779755e-07   315320
  4.942006e-01   3.802762e-04   1.835899e-03   6.695554e-07   322346
  5.005701e-01   3.858219e-04   1.842589e-03   6.687003e-07   331664
  5.069538e-01   3.892419e-04   1.844896e-03   6.655417e-07   340818
  5.133346e-01   3.964030e-04   1.837322e-03   6.718474e-07   348164
  5.197083e-01   3.995696e-04   1.843548e-03   6.682426e-07   357584
  5.260929e-01   4.034514e-04   1.846059e-03   6.643199e-07   367106
  5.324635e-01   4.076965e-04   1.832285e-03   6.655770e-07   373376
  5.388350e-01   4.107965e-04   1.848023e-03   6.599956e-07   385376
  5.452233e-01   4.159605e-04   1.842356e-03   6.628187e-07   393650
  5.516038e-01   4.185758e-04   1.840588e-03   6.589245e-07   402704
  5.579656e-01   4.226852e-04   1.830970e-03   6.606780e-07   409910
  5.643320e-01   4.280327e-04   1.843407e-03   6.613894e-07   422024
  5.707212e-01   4.305339e-04   1.846526e-03   6.533762e-07   432176
  5.771022e-01   4.357064e-04   1.837404e-03   6.585369e-07   440066
  5.834769e-01   4.405102e-04   1.841263e-03   6.552092e-07   450680
  5.898365e-01   4.433824e-04   1.831084e-03   6.557014e-07   457856
  5.962115e-01   4.490910e-04   1.848347e-03   6.507528e-07   472538
  6.026013e-01   4.536428e-04   1.839689e-03   6.559224e-07   480140
  6.089752e-01   4.557549e-04   1.841279e-03   6.518832e-07   490842
  6.153517e-01   4.607670e-04   1.838382e-03   6.515164e-07   500744
  6.217295e-01   4.640257e-04   1.842392e-03   6.488948e-07   511856
  6.281145e-01   4.679885e-04   1.844734e-03   6.476914e-07   523202
  6.344991e-01   4.718566e-04   1.840396e-03   6.480979e-07   532688
  6.408638e-01   4.759878e-04   1.834541e-03   6.510385e-07   541520
  6.472341e-01   4.794566e-04   1.842653e-03   6.453519e-07   555110
  6.536136e-01   4.837713e-04   1.839126e-03   6.429295e-07   564944
  6.599884e-01   4.853367e-04   1.839832e-03   6.413129e-07   576434
  6.663740e-01   4.898015e-04   1.844405e-03   6.391632e-07   588848
  6.727501e-01   4.943642e-04   1.838623e-03   6.404463e-07   597704
  6.791236e-01   4.971488e-04   1.842386e-03   6.369488e-07   610946
  6.855006e-01   5.020370e-04   1.837794e-03   6.378185e-07   620852
  6.918722e-01   5.049447e-04   1.841901e-03   6.360747e-07   633530
  6.982524e-01   5.080786e-04   1.841844e-03   6.339027e-07   645704
  7.046316e-01   5.119315e-04   1.840565e-03   6.341580e-07   656744
  7.110074e-01   5.166775e-04   1.841941e-03   6.314262e-07   669162
  7.173906e-01   5.206298e-04   1.843286e-03   6.301894e-07   681992
  7.237681e-01   5.230672e-04   1.838959e-03   6.307900e-07   692360
  7.301485e-01   5.264081e-04   1.844364e-03   6.278270e-07   707006
  7.365206e-01   5.300161e-04   1.834135e-03   6.276067e-07   714944
  7.428835e-01   5.356878e-04   1.841775e-03   6.267493e-07   730346
  7.492606e-01   5.381246e-04   1.838962e-03   6.260911e-07   742616
  7.556415e-01   5.420221e-04   1.843530e-03   6.229954e-07   756536
  7.620128e-01   5.440130e-04   1.836595e-03   6.225928e-07   766418
  7.683917e-01   5.473318e-04   1.845753e-03   6.184803e-07   783392
  7.747614e-01   5.512735e-04   1.833632e-03   6.220157e-07   790412
  7.811334e-01   5.547821e-04   1.848120e-03   6.165415e-07   810314
  7.875277e-01   5.587683e-04   1.843702e-03   6.163458e-07   821960
  7.938987e-01   5.629882e-04   1.834976e-03   6.168043e-07   831266
  8.002712e-01   5.638597e-04   1.843706e-03   6.128467e-07   848960
  8.066557e-01   5.678633e-04   1.842629e-03   6.127816e-07   861488
  8.130204e-01   5.713536e-04   1.833334e-03   6.142056e-07   871194
  8.193985e-01   5.747377e-04   1.847247e-03   6.083361e-07   891788
  8.257796e-01   5.785116e-04   1.838008e-03   6.101388e-07   900416
  8.321422e-01   5.831325e-04   1.836250e-03   6.092785e-07   914306
  8.385264e-01   5.846108e-04   1.847988e-03   6.053735e-07   933992
  8.449011e-01   5.875868e-04   1.834294e-03   6.064639e-07   940826
  8.512701e-01   5.924437e-04   1.842364e-03   6.073024e-07   960224
  8.576621e-01   5.948825e-04   1.846556e-03   6.024096e-07   976316
  8.640381e-01   5.969228e-04   1.835724e-03   6.004500e-07   985010
  8.704114e-01   6.010942e-04   1.843336e-03   6.005211e-07   1004024
  8.767898e-01   6.023756e-04   1.839706e-03   5.998249e-07   1016288
  8.831639e-01   6.084126e-04   1.840690e-03   5.989387e-07   1032290
  8.895470e-01   6.105981e-04   1.843156e-03   5.970208e-07   1048640
  8.959130e-01   6.123345e-04   1.831919e-03   5.960162e-07   1057250
  9.022937e-01   6.182830e-04   1.849588e-03   5.945032e-07   1083140
  9.086870e-01   6.213920e-04   1.840763e-03   5.961483e-07   1092248
  9.150555e-01   6.227309e-04   1.837510e-03   5.928934e-07   1105914
  9.214310e-01   6.256938e-04   1.841822e-03   5.894292e-07   1124744
  9.278120e-01   6.297559e-04   1.841202e-03   5.909328e-07   1139120
  9.341841e-01   6.333997e-04   1.838536e-03   5.888810e-07   1153490
  9.405650e-01   6.353575e-04   1.844187e-03   5.873077e-07   1172936
  9.469357e-01   6.394851e-04   1.834491e-03   5.891697e-07   1182158
  9.533110e-01   6.411867e-04   1.846126e-03   5.820843e-07   1206392
  9.596894e-01   6.437727e-04   1.835525e-03   5.834995e-07   1215224
  9.660641e-01   6.473051e-04   1.844936e-03   5.810242e-07   1237874
  9.724505e-01   6.512137e-04   1.841050e-03   5.823559e-07   1251800
  9.788233e-01   6.526047e-04   1.838619e-03   5.797835e-07   1265792
  9.851993e-01   6.584102e-04   1.843109e-03   5.818124e-07   1286306
  9.915793e-01   6.598121e-04   1.838809e-03   5.802366e-07   1299764
  9.979438e-01   6.634962e-04   1.836769e-03   5.784951e-07   1314554
  1.004319e+00   6.647496e-04   1.843595e-03   5.752924e-07   1337288
  1.010703e+00   6.685258e-04   1.840912e-03   5.744279e-07   1351304
  1.017077e+00   6.708980e-04   1.841769e-03   5.710741e-07   1369026
  1.023461e+00   6.736809e-04   1.843478e-03   5.716008e-07   1388456
  1.029842e+00   6.776713e-04   1.840406e-03   5.738743e-07   1402700
  1.036211e+00   6.798993e-04   1.837802e-03   5.716615e-07   1418282
  1.042587e+00   6.833072e-04   1.843596e-03   5.696328e-07   1440272
  1.048964e+00   6.861534e-04   1.838705e-03   5.692555e-07   1454114
  1.055341e+00   6.880305e-04   1.842603e-03   5.661962e-07   1475480
  1.061720e+00   6.922465e-04   1.840520e-03   5.665591e-07   1490936
  1.068091e+00   6.933504e-04   1.838519e-03   5.647040e-07   1507826
  1.074472e+00   6.971990e-04   1.844275e-03   5.651008e-07   1530764
  1.080850e+00   6.988876e-04   1.839052e-03   5.618606e-07   1543424
  1.087222e+00   7.035306e-04   1.841688e-03   5.625781e-07   1564946
  1.093594e+00   7.060987e-04   1.835875e-03   5.610943e-07   1578536
  1.099970e+00   7.085164e-04   1.845670e-03   5.587470e-07   1604882
  1.106358e+00   7.114695e-04   1.842454e-03   5.588397e-07   1621304
  1.112736e+00   7.132052e-04   1.839545e-03   5.590545e-07   1637024
  1.119103e+00   7.169733e-04   1.837794e-03   5.585896e-07   1654134
  1.125480e+00   7.195080e-04   1.844256e-03   5.558667e-07   1679168
  1.131864e+00   7.224307e-04   1.841903e-03   5.544938e-07   1695944
  1.138235e+00   7.257863e-04   1.836568e-03   5.547820e-07   1710602
  1.144612e+00   7.285255e-04   1.844777e-03   5.535182e-07   1737056
  1.150994e+00   7.311983e-04   1.840390e-03   5.526351e-07   1752602
  1.157370e+00   7.326288e-04   1.839227e-03   5.507814e-07   1772024
  1.163752e+00   7.359109e-04   1.844090e-03   5.501036e-07   1795364
  1.170126e+00   7.383954e-04   1.836467e-03   5.498797e-07   1807634
  1.176490e+00   7.415455e-04   1.836183e-03   5.485651e-07   1827608
  1.182859e+00   7.437310e-04   1.840789e-03   5.467608e-07   1850984
  1.189240e+00   7.457630e-04   1.844107e-03   5.442144e-07   1874618
  1.195619e+00   7.489983e-04   1.838445e-03   5.450377e-07   1889504
  1.202001e+00   7.519246e-04   1.845373e-03   5.434121e-07   1916870
  1.208383e+00   7.535042e-04   1.838254e-03   5.426340e-07   1929728
  1.214760e+00   7.580637e-04   1.843674e-03   5.422591e-07   1955408
  1.221131e+00   7.596667e-04   1.834427e-03   5.409619e-07   1966842
  1.227503e+00   7.618286e-04   1.843005e-03   5.393628e-07   1996640
  1.233886e+00   7.652027e-04   1.842690e-03   5.401700e-07   2016392
  1.240265e+00   7.679755e-04   1.839730e-03   5.375673e-07   2034722
  1.246641e+00   7.688363e-04   1.840813e-03   5.360423e-07   2056460
  1.253014e+00   7.723560e-04   1.838931e-03   5.364132e-07   2075186
  1.259388e+00   7.748060e-04   1.840566e-03   5.354721e-07   2099096
  1.265761e+00   7.781466e-04   1.837910e-03   5.351013e-07   2116832
  1.272138e+00   7.795442e-04   1.844119e-03   5.321574e-07   2145146
  1.278526e+00   7.814007e-04   1.844128e-03   5.308053e-07   2166776
  1.284904e+00   7.851149e-04   1.838822e-03   5.311747e-07   2181848
  1.291273e+00   7.876964e-04   1.838785e-03   5.311073e-07   2203766
  1.297646e+00   7.896506e-04   1.840619e-03   5.284039e-07   2227664
  1.304025e+00   7.923440e-04   1.842381e-03   5.282476e-07   2252138
  1.310403e+00   7.937103e-04   1.839825e-03   5.271038e-07   2271152
  1.316777e+00   7.972756e-04   1.840536e-03   5.261267e-07   2293256
  1.323154e+00   7.999872e-04   1.842085e-03   5.268039e-07   2318130
  1.329536e+00   8.032556e-04   1.841956e-03   5.256113e-07   2340824
  1.335910e+00   8.043364e-04   1.838342e-03   5.243295e-07   2357990
  1.342292e+00   8.070842e-04   1.846396e-03   5.220219e-07   2391176
  1.348671e+00   8.102343e-04   1.837209e-03   5.224148e-07   2401808
  1.355040e+00   8.132163e-04   1.840258e-03   5.216622e-07   2428442
  1.361418e+00   8.146720e-04   1.842645e-03   5.197772e-07   2454752
  1.367798e+00   8.158317e-04   1.841270e-03   5.187654e-07   2475872
  1.374172e+00   8.185040e-04   1.838763e-03   5.183309e-07   2495822
  1.380543e+00   8.208772e-04   1.839940e-03   5.168486e-07   2520248
  1.386922e+00   8.228210e-04   1.844043e-03   5.161260e-07   2549186
  1.393299e+00   8.263684e-04   1.837661e-03   5.156006e-07   2564768
  1.399672e+00   8.294897e-04   1.841284e-03   5.158870e-07   2592968
  1.406054e+00   8.304963e-04   1.843378e-03   5.141839e-07   2619818
  1.412431e+00   8.343602e-04   1.838027e-03   5.147389e-07   2636384
  1.418803e+00   8.351427e-04   1.840293e-03   5.125968e-07   2662220
  1.425180e+00   8.383611e-04   1.842524e-03   5.113970e-07   2689770
  1.431560e+00   8.407235e-04   1.840994e-03   5.105069e-07   2712296
  1.437933e+00   8.424458e-04   1.838431e-03   5.097505e-07   2732618
  1.444312e+00   8.442964e-04   1.843932e-03   5.073832e-07   2765264
  1.450695e+00   8.483695e-04   1.840894e-03   5.082435e-07   2784824
  1.457066e+00   8.496068e-04   1.837138e-03   5.068358e-07   2804162
  1.463445e+00   8.530655e-04   1.844971e-03   5.060089e-07   2840612
  1.469825e+00   8.550801e-04   1.839130e-03   5.062855e-07   2855576
  1.476198e+00   8.558453e-04   1.840533e-03   5.040176e-07   2883458
  1.482571e+00   8.595748e-04   1.838217e-03   5.046201e-07   2904128
  1.488946e+00   8.618387e-04   1.843378e-03   5.032343e-07   2937026
  1.495325e+00   8.639932e-04   1.839218e-03   5.023563e-07   2956976
  1.501703e+00   8.657008e-04   1.841967e-03   5.008477e-07   2986472
  1.508082e+00   8.690274e-04   1.840166e-03   5.009133e-07   3008918
  1.514460e+00   8.698621e-04   1.841773e-03   4.991274e-07   3036752
  1.520836e+00   8.735447e-04   1.839884e-03   4.994084e-07   3058376
  1.527209e+00   8.762507e-04   1.839616e-03   4.989014e-07   3084210
  1.533583e+00   8.776590e-04   1.840948e-03   4.972675e-07   3111848
  1.539960e+00   8.800530e-04   1.841348e-03   4.964975e-07   3138890
  1.546339e+00   8.821562e-04   1.840626e-03   4.965559e-07   3164516
  1.552719e+00   8.844048e-04   1.842638e-03   4.945973e-07   3192656
  1.559097e+00   8.860300e-04   1.840555e-03   4.938174e-07   3215618
  1.565473e+00   8.886792e-04   1.840732e-03   4.936343e-07   3242888
  1.571846e+00   8.912059e-04   1.839114e-03   4.926962e-07   3265448
  1.578224e+00   8.932083e-04   1.843575e-03   4.918383e-07   3300842
  1.584604e+00   8.945561e-04   1.839884e-03   4.910987e-07   3321008
  1.590977e+00   8.965055e-04   1.839336e-03   4.903875e-07   3346406
  1.597352e+00   8.988568e-04   1.841596e-03   4.889647e-07   3377984
  1.603728e+00   9.012439e-04   1.839551e-03   4.881439e-07   3400352
  1.610103e+00   9.049354e-04   1.841321e-03   4.884399e-07   3431450
  1.616483e+00   9.055078e-04   1.841519e-03   4.865083e-07   3458768
  1.622859e+00   9.077757e-04   1.841183e-03   4.863966e-07   3484088
  1.629231e+00   9.113874e-04   1.838425e-03   4.867235e-07   3508218
  1.635610e+00   9.129477e-04   1.843946e-03   4.852987e-07   3545924
  1.641992e+00   9.142875e-04   1.841053e-03   4.844953e-07   3567530
  1.648369e+00   9.169979e-04   1.840183e-03   4.836732e-07   3595040
  1.654744e+00   9.198145e-04   1.840167e-03   4.839326e-07   3621176
  1.661115e+00   9.207353e-04   1.839521e-03   4.817790e-07   3647738
  1.667490e+00   9.233533e-04   1.841438e-03   4.809749e-07   3680480
  1.673870e+00   9.249413e-04   1.842082e-03   4.804859e-07   3709712
  1.680248e+00   9.274464e-04   1.840008e-03   4.801101e-07   3734702
  1.686623e+00   9.288749e-04   1.840362e-03   4.786520e-07   3762776
  1.692996e+00   9.309799e-04   1.839854e-03   4.788016e-07   3790514
  1.699371e+00   9.330867e-04   1.839908e-03   4.773534e-07   3820352
  1.705752e+00   9.353541e-04   1.844068e-03   4.764151e-07   3856016
  1.712131e+00   9.379813e-04   1.839690e-03   4.771841e-07   3876818
  1.718506e+00   9.405962e-04   1.839874e-03   4.758386e-07   3906332
  1.724882e+00   9.423693e-04   1.841963e-03   4.749895e-07   3938216
  1.731260e+00   9.430557e-04   1.840685e-03   4.735827e-07   3966354
  1.737636e+00   9.450993e-04   1.839695e-03   4.729145e-07   3993536
  1.744011e+00   9.473651e-04   1.840344e-03   4.729559e-07   4024034
  1.750392e+00   9.506344e-04   1.843071e-03   4.718807e-07   4060208
  1.756773e+00   9.507823e-04   1.840812e-03   4.705853e-07   4083632
  1.763145e+00   9.550738e-04   1.837811e-03   4.717260e-07   4107062
  1.769521e+00   9.553681e-04   1.842771e-03   4.689824e-07   4148072
  1.775893e+00   9.577183e-04   1.836707e-03   4.696217e-07   4163456
  1.782267e+00   9.595140e-04   1.842476e-03   4.676647e-07   4207994
  1.788652e+00   9.613145e-04   1.843367e-03   4.671804e-07   4239152
  1.795029e+00   9.641584e-04   1.839132e-03   4.675535e-07   4259426
  1.801407e+00   9.657551e-04   1.842524e-03   4.659605e-07   4299488
  1.807788e+00   9.684280e-04   1.840660e-03   4.656564e-07   4323692
  1.814162e+00   9.693683e-04   1.840093e-03   4.651150e-07   4353242
  1.820541e+00   9.727310e-04   1.841694e-03   4.642882e-07   4388792
