# power spectrum of zeta (dimensionless)
# redshift z=9.863284
# k              Pk             sigma(k)       sigma(Pk)      count
  5.011399e-03   4.573792e-20   7.667927e-04   8.996717e-21   18
  1.037418e-02   1.353079e-18   1.725047e-03   1.567899e-19   128
  1.616528e-02   6.062826e-18   1.646572e-03   3.425646e-19   314
  2.269071e-02   1.457909e-17   1.954354e-03   5.650688e-19   728
  2.897169e-02   2.793159e-17   1.717946e-03   9.379955e-19   1016
  3.518826e-02   3.881045e-17   1.880676e-03   9.575168e-19   1682
  4.169479e-02   5.819977e-17   1.831736e-03   1.225517e-18   2300
  4.790974e-02   7.393015e-17   1.770731e-03   1.389100e-18   2906
  5.429022e-02   9.946409e-17   1.892687e-03   1.639396e-18   4040
  6.068098e-02   1.279442e-16   1.775551e-03   1.931494e-18   4712
  6.698900e-02   1.630031e-16   1.857705e-03   2.097956e-18   6002
  7.346135e-02   1.924446e-16   1.857594e-03   2.287360e-18   7256
  7.977379e-02   2.278375e-16   1.772571e-03   2.573188e-18   8120
  8.609019e-02   2.492144e-16   1.864951e-03   2.500056e-18   9950
  9.253636e-02   2.739215e-16   1.853578e-03   2.532771e-18   11384
  9.885187e-02   2.911152e-16   1.809244e-03   2.616922e-18   12666
  1.052712e-01   3.200739e-16   1.889168e-03   2.567131e-18   15104
  1.117654e-01   3.527571e-16   1.850532e-03   2.769974e-18   16616
  1.180754e-01   4.004770e-16   1.799489e-03   3.006032e-18   18026
  1.244216e-01   4.389455e-16   1.853405e-03   3.008243e-18   20696
  1.308065e-01   4.758697e-16   1.827918e-03   3.202015e-18   22436
  1.371558e-01   5.215142e-16   1.845873e-03   3.328030e-18   24962
  1.435394e-01   5.455234e-16   1.831283e-03   3.271440e-18   27176
  1.499133e-01   5.614018e-16   1.847268e-03   3.266809e-18   29810
  1.562775e-01   5.830057e-16   1.828450e-03   3.291957e-18   32120
  1.626776e-01   6.027237e-16   1.865216e-03   3.211268e-18   35432
  1.690383e-01   6.406493e-16   1.814577e-03   3.321222e-18   37238
  1.754019e-01   6.767034e-16   1.856016e-03   3.341566e-18   41072
  1.817869e-01   7.111340e-16   1.834293e-03   3.446469e-18   43472
  1.881565e-01   7.605351e-16   1.848176e-03   3.516503e-18   47042
  1.945298e-01   8.095260e-16   1.829223e-03   3.671776e-18   49712
  2.008693e-01   8.387119e-16   1.840592e-03   3.666886e-18   53226
  2.072637e-01   8.471652e-16   1.853753e-03   3.528988e-18   57320
  2.136558e-01   8.758081e-16   1.831629e-03   3.588501e-18   60092
  2.200056e-01   8.997914e-16   1.839426e-03   3.569273e-18   63914
  2.263950e-01   9.176173e-16   1.849752e-03   3.499168e-18   68192
  2.327751e-01   9.467193e-16   1.833934e-03   3.548433e-18   71336
  2.391397e-01   9.754169e-16   1.845607e-03   3.543260e-18   75818
  2.455297e-01   1.010372e-15   1.844019e-03   3.588386e-18   79880
  2.518964e-01   1.050674e-15   1.834462e-03   3.625706e-18   83642
  2.582661e-01   1.091495e-15   1.840779e-03   3.667696e-18   88316
  2.646730e-01   1.116138e-15   1.859422e-03   3.662892e-18   93488
  2.710484e-01   1.137659e-15   1.827184e-03   3.665019e-18   96458
  2.773871e-01   1.159097e-15   1.829038e-03   3.688932e-18   101264
  2.837816e-01   1.175181e-15   1.862873e-03   3.574985e-18   107696
  2.901819e-01   1.189440e-15   1.837217e-03   3.571375e-18   111170
  2.965233e-01   1.229179e-15   1.822285e-03   3.619757e-18   115232
  3.028941e-01   1.251711e-15   1.855375e-03   3.579119e-18   122310
  3.093019e-01   1.276358e-15   1.843350e-03   3.585171e-18   126944
  3.156739e-01   1.312312e-15   1.828600e-03   3.627130e-18   131192
  3.220432e-01   1.339145e-15   1.844535e-03   3.631271e-18   137618
  3.284234e-01   1.365823e-15   1.836674e-03   3.613989e-18   142448
  3.347979e-01   1.378203e-15   1.844704e-03   3.569150e-18   148520
  3.411627e-01   1.401071e-15   1.831436e-03   3.606352e-18   153254
  3.475446e-01   1.425666e-15   1.852010e-03   3.565715e-18   160760
  3.539284e-01   1.427340e-15   1.835751e-03   3.488770e-18   165290
  3.603019e-01   1.461016e-15   1.840148e-03   3.529347e-18   171992
  3.666828e-01   1.481215e-15   1.840217e-03   3.529250e-18   177800
  3.730569e-01   1.507368e-15   1.843032e-03   3.519430e-18   184322
  3.794439e-01   1.528516e-15   1.841595e-03   3.513012e-18   190832
  3.858239e-01   1.546746e-15   1.839260e-03   3.513232e-18   196772
  3.921872e-01   1.576430e-15   1.836453e-03   3.509180e-18   202970
  3.985536e-01   1.598046e-15   1.839266e-03   3.494265e-18   210056
  4.049173e-01   1.617412e-15   1.832832e-03   3.482639e-18   216210
  4.112896e-01   1.631016e-15   1.841640e-03   3.438546e-18   224168
  4.176700e-01   1.636685e-15   1.840761e-03   3.423809e-18   230792
  4.240565e-01   1.667667e-15   1.846256e-03   3.422231e-18   238778
  4.304312e-01   1.671215e-15   1.831772e-03   3.379680e-18   243956
  4.367939e-01   1.699659e-15   1.845141e-03   3.381974e-18   252680
  4.431746e-01   1.716543e-15   1.842020e-03   3.373932e-18   260066
  4.495713e-01   1.734974e-15   1.849294e-03   3.348074e-18   268712
  4.559494e-01   1.755886e-15   1.834336e-03   3.352811e-18   274034
  4.623270e-01   1.756603e-15   1.847366e-03   3.301858e-18   283904
  4.687088e-01   1.775779e-15   1.837425e-03   3.296353e-18   290048
  4.750707e-01   1.784848e-15   1.836659e-03   3.285077e-18   297950
  4.814434e-01   1.804836e-15   1.842026e-03   3.280918e-18   306968
  4.878269e-01   1.832185e-15   1.843240e-03   3.272517e-18   315320
  4.942006e-01   1.827210e-15   1.835899e-03   3.219576e-18   322346
  5.005701e-01   1.846889e-15   1.842589e-03   3.201492e-18   331664
  5.069538e-01   1.855748e-15   1.844896e-03   3.174014e-18   340818
  5.133346e-01   1.882177e-15   1.837322e-03   3.190398e-18   348164
  5.197083e-01   1.890558e-15   1.843548e-03   3.161875e-18   357584
  5.260929e-01   1.902658e-15   1.846059e-03   3.133900e-18   367106
  5.324635e-01   1.910354e-15   1.832285e-03   3.117550e-18   373376
  5.388350e-01   1.918197e-15   1.848023e-03   3.083526e-18   385376
  5.452233e-01   1.934281e-15   1.842356e-03   3.078590e-18   393650
  5.516038e-01   1.938360e-15   1.840588e-03   3.053103e-18   402704
  5.579656e-01   1.948225e-15   1.830970e-03   3.042524e-18   409910
  5.643320e-01   1.965050e-15   1.843407e-03   3.034422e-18   422024
  5.707212e-01   1.967502e-15   1.846526e-03   2.988087e-18   432176
  5.771022e-01   1.981040e-15   1.837404e-03   2.993631e-18   440066
  5.834769e-01   1.991843e-15   1.841263e-03   2.965927e-18   450680
  5.898365e-01   1.998887e-15   1.831084e-03   2.954617e-18   457856
  5.962115e-01   2.013252e-15   1.848347e-03   2.920936e-18   472538
  6.026013e-01   2.025954e-15   1.839689e-03   2.925832e-18   480140
  6.089752e-01   2.024912e-15   1.841279e-03   2.897060e-18   490842
  6.153517e-01   2.038700e-15   1.838382e-03   2.882864e-18   500744
  6.217295e-01   2.041051e-15   1.842392e-03   2.851809e-18   511856
  6.281145e-01   2.050809e-15   1.844734e-03   2.837526e-18   523202
  6.344991e-01   2.058253e-15   1.840396e-03   2.829383e-18   532688
  6.408638e-01   2.065104e-15   1.834541e-03   2.819393e-18   541520
  6.472341e-01   2.070604e-15   1.842653e-03   2.787242e-18   555110
  6.536136e-01   2.075677e-15   1.839126e-03   2.755172e-18   564944
  6.599884e-01   2.072663e-15   1.839832e-03   2.739865e-18   576434
  6.663740e-01   2.081155e-15   1.844405e-03   2.715556e-18   588848
  6.727501e-01   2.088205e-15   1.838623e-03   2.704654e-18   597704
  6.791236e-01   2.093558e-15   1.842386e-03   2.686641e-18   610946
  6.855006e-01   2.100708e-15   1.837794e-03   2.668000e-18   620852
  6.918722e-01   2.100234e-15   1.841901e-03   2.647727e-18   633530
  6.982524e-01   2.102360e-15   1.841844e-03   2.622326e-18   645704
  7.046316e-01   2.108260e-15   1.840565e-03   2.609499e-18   656744
  7.110074e-01   2.115358e-15   1.841941e-03   2.588715e-18   669162
  7.173906e-01   2.119982e-15   1.843286e-03   2.565527e-18   681992
  7.237681e-01   2.117621e-15   1.838959e-03   2.555153e-18   692360
  7.301485e-01   2.120127e-15   1.844364e-03   2.527315e-18   707006
  7.365206e-01   2.121451e-15   1.834135e-03   2.509429e-18   714944
  7.428835e-01   2.133025e-15   1.841775e-03   2.496859e-18   730346
  7.492606e-01   2.131198e-15   1.838962e-03   2.480937e-18   742616
  7.556415e-01   2.132101e-15   1.843530e-03   2.452406e-18   756536
  7.620128e-01   2.128860e-15   1.836595e-03   2.436985e-18   766418
  7.683917e-01   2.128280e-15   1.845753e-03   2.403369e-18   783392
  7.747614e-01   2.132533e-15   1.833632e-03   2.403448e-18   790412
  7.811334e-01   2.131778e-15   1.848120e-03   2.368236e-18   810314
  7.875277e-01   2.134382e-15   1.843702e-03   2.356120e-18   821960
  7.938987e-01   2.137995e-15   1.834976e-03   2.344176e-18   831266
  8.002712e-01   2.127389e-15   1.843706e-03   2.313359e-18   848960
  8.066557e-01   2.129741e-15   1.842629e-03   2.300486e-18   861488
  8.130204e-01   2.130411e-15   1.833334e-03   2.293040e-18   871194
  8.193985e-01   2.127491e-15   1.847247e-03   2.251821e-18   891788
  8.257796e-01   2.126280e-15   1.838008e-03   2.243166e-18   900416
  8.321422e-01   2.130731e-15   1.836250e-03   2.226888e-18   914306
  8.385264e-01   2.125444e-15   1.847988e-03   2.201333e-18   933992
  8.449011e-01   2.122116e-15   1.834294e-03   2.191171e-18   940826
  8.512701e-01   2.125339e-15   1.842364e-03   2.177083e-18   960224
  8.576621e-01   2.119760e-15   1.846556e-03   2.148861e-18   976316
  8.640381e-01   2.115978e-15   1.835724e-03   2.132600e-18   985010
  8.704114e-01   2.114513e-15   1.843336e-03   2.113668e-18   1004024
  8.767898e-01   2.106582e-15   1.839706e-03   2.100629e-18   1016288
  8.831639e-01   2.111670e-15   1.840690e-03   2.081374e-18   1032290
  8.895470e-01   2.104303e-15   1.843156e-03   2.059675e-18   1048640
  8.959130e-01   2.096898e-15   1.831919e-03   2.039798e-18   1057250
  9.022937e-01   2.101951e-15   1.849588e-03   2.020818e-18   1083140
  9.086870e-01   2.097827e-15   1.840763e-03   2.016435e-18   1092248
  9.150555e-01   2.089025e-15   1.837510e-03   1.991720e-18   1105914
  9.214310e-01   2.083585e-15   1.841822e-03   1.966506e-18   1124744
  9.278120e-01   2.084247e-15   1.841202e-03   1.957193e-18   1139120
  9.341841e-01   2.080236e-15   1.838536e-03   1.937728e-18   1153490
  9.405650e-01   2.073976e-15   1.844187e-03   1.920966e-18   1172936
  9.469357e-01   2.071214e-15   1.834491e-03   1.912367e-18   1182158
  9.533110e-01   2.062866e-15   1.846126e-03   1.876787e-18   1206392
  9.596894e-01   2.053593e-15   1.835525e-03   1.862619e-18   1215224
  9.660641e-01   2.052490e-15   1.844936e-03   1.845245e-18   1237874
  9.724505e-01   2.048341e-15   1.841050e-03   1.834724e-18   1251800
  9.788233e-01   2.037152e-15   1.838619e-03   1.815080e-18   1265792
  9.851993e-01   2.039898e-15   1.843109e-03   1.806302e-18   1286306
  9.915793e-01   2.029831e-15   1.838809e-03   1.786288e-18   1299764
  9.979438e-01   2.025380e-15   1.836769e-03   1.770310e-18   1314554
  1.004319e+00   2.016753e-15   1.843595e-03   1.747260e-18   1337288
  1.010703e+00   2.012753e-15   1.840912e-03   1.732972e-18   1351304
  1.017077e+00   2.003777e-15   1.841769e-03   1.711183e-18   1369026
  1.023461e+00   1.998152e-15   1.843478e-03   1.700113e-18   1388456
  1.029842e+00   1.993278e-15   1.840406e-03   1.691008e-18   1402700
  1.036211e+00   1.985457e-15   1.837802e-03   1.673166e-18   1418282
  1.042587e+00   1.980243e-15   1.843596e-03   1.654858e-18   1440272
  1.048964e+00   1.972458e-15   1.838705e-03   1.639047e-18   1454114
  1.055341e+00   1.963386e-15   1.842603e-03   1.618915e-18   1475480
  1.061720e+00   1.960191e-15   1.840520e-03   1.606510e-18   1490936
  1.068091e+00   1.946638e-15   1.838519e-03   1.589007e-18   1507826
  1.074472e+00   1.945017e-15   1.844275e-03   1.579422e-18   1530764
  1.080850e+00   1.930285e-15   1.839052e-03   1.556451e-18   1543424
  1.087222e+00   1.928579e-15   1.841688e-03   1.547009e-18   1564946
  1.093594e+00   1.921069e-15   1.835875e-03   1.530183e-18   1578536
  1.099970e+00   1.911525e-15   1.845670e-03   1.512639e-18   1604882
  1.106358e+00   1.902730e-15   1.842454e-03   1.498769e-18   1621304
  1.112736e+00   1.893330e-15   1.839545e-03   1.488308e-18   1637024
  1.119103e+00   1.890298e-15   1.837794e-03   1.474501e-18   1654134
  1.125480e+00   1.880682e-15   1.844256e-03   1.456257e-18   1679168
  1.131864e+00   1.870131e-15   1.841903e-03   1.439106e-18   1695944
  1.138235e+00   1.862730e-15   1.836568e-03   1.429029e-18   1710602
  1.144612e+00   1.855760e-15   1.844777e-03   1.412835e-18   1737056
  1.150994e+00   1.847995e-15   1.840390e-03   1.401060e-18   1752602
  1.157370e+00   1.834759e-15   1.839227e-03   1.383134e-18   1772024
  1.163752e+00   1.828521e-15   1.844090e-03   1.370778e-18   1795364
  1.170126e+00   1.818356e-15   1.836467e-03   1.358179e-18   1807634
  1.176490e+00   1.810187e-15   1.836183e-03   1.343419e-18   1827608
  1.182859e+00   1.802238e-15   1.840789e-03   1.331452e-18   1850984
  1.189240e+00   1.791919e-15   1.844107e-03   1.313007e-18   1874618
  1.195619e+00   1.783816e-15   1.838445e-03   1.302478e-18   1889504
  1.202001e+00   1.775004e-15   1.845373e-03   1.287630e-18   1916870
  1.208383e+00   1.761733e-15   1.838254e-03   1.274063e-18   1929728
  1.214760e+00   1.758061e-15   1.843674e-03   1.262433e-18   1955408
  1.221131e+00   1.745773e-15   1.834427e-03   1.248294e-18   1966842
  1.227503e+00   1.734605e-15   1.843005e-03   1.233260e-18   1996640
  1.233886e+00   1.726211e-15   1.842690e-03   1.222999e-18   2016392
  1.240265e+00   1.719066e-15   1.839730e-03   1.209596e-18   2034722
  1.246641e+00   1.706684e-15   1.840813e-03   1.195789e-18   2056460
  1.253014e+00   1.698178e-15   1.838931e-03   1.186331e-18   2075186
  1.259388e+00   1.688182e-15   1.840566e-03   1.173178e-18   2099096
  1.265761e+00   1.679657e-15   1.837910e-03   1.161619e-18   2116832
  1.272138e+00   1.669219e-15   1.844119e-03   1.146365e-18   2145146
  1.278526e+00   1.658538e-15   1.844128e-03   1.132452e-18   2166776
  1.284904e+00   1.649091e-15   1.838822e-03   1.123185e-18   2181848
  1.291273e+00   1.640648e-15   1.838785e-03   1.112315e-18   2203766
  1.297646e+00   1.630855e-15   1.840619e-03   1.099281e-18   2227664
  1.304025e+00   1.619401e-15   1.842381e-03   1.086250e-18   2252138
  1.310403e+00   1.609530e-15   1.839825e-03   1.075891e-18   2271152
  1.316777e+00   1.601697e-15   1.840536e-03   1.063273e-18   2293256
  1.323154e+00   1.590640e-15   1.842085e-03   1.052848e-18   2318130
  1.329536e+00   1.583413e-15   1.841956e-03   1.042757e-18   2340824
  1.335910e+00   1.571588e-15   1.838342e-03   1.030795e-18   2357990
  1.342292e+00   1.561667e-15   1.846396e-03   1.017689e-18   2391176
  1.348671e+00   1.553155e-15   1.837209e-03   1.009253e-18   2401808
  1.355040e+00   1.544207e-15   1.840258e-03   9.980416e-19   2428442
  1.361418e+00   1.531424e-15   1.842645e-03   9.845718e-19   2454752
  1.367798e+00   1.519955e-15   1.841270e-03   9.745747e-19   2475872
  1.374172e+00   1.510943e-15   1.838763e-03   9.647741e-19   2495822
  1.380543e+00   1.501082e-15   1.839940e-03   9.546881e-19   2520248
  1.386922e+00   1.489876e-15   1.844043e-03   9.426576e-19   2549186
  1.393299e+00   1.482889e-15   1.837661e-03   9.328507e-19   2564768
  1.399672e+00   1.472890e-15   1.841284e-03   9.239959e-19   2592968
  1.406054e+00   1.461328e-15   1.843378e-03   9.132743e-19   2619818
  1.412431e+00   1.452882e-15   1.838027e-03   9.041317e-19   2636384
  1.418803e+00   1.441533e-15   1.840293e-03   8.934636e-19   2662220
  1.425180e+00   1.432624e-15   1.842524e-03   8.822727e-19   2689770
  1.431560e+00   1.421568e-15   1.840994e-03   8.720593e-19   2712296
  1.437933e+00   1.411796e-15   1.838431e-03   8.624155e-19   2732618
  1.444312e+00   1.401542e-15   1.843932e-03   8.510043e-19   2765264
  1.450695e+00   1.393021e-15   1.840894e-03   8.440933e-19   2784824
  1.457066e+00   1.382677e-15   1.837138e-03   8.343661e-19   2804162
  1.463445e+00   1.373853e-15   1.844971e-03   8.241773e-19   2840612
  1.469825e+00   1.365049e-15   1.839130e-03   8.166709e-19   2855576
  1.476198e+00   1.352590e-15   1.840533e-03   8.058054e-19   2883458
  1.482571e+00   1.343274e-15   1.838217e-03   7.977068e-19   2904128
  1.488946e+00   1.334524e-15   1.843378e-03   7.881997e-19   2937026
  1.495325e+00   1.324059e-15   1.839218e-03   7.783708e-19   2956976
  1.501703e+00   1.313439e-15   1.841967e-03   7.696964e-19   2986472
  1.508082e+00   1.305634e-15   1.840166e-03   7.627833e-19   3008918
  1.514460e+00   1.294515e-15   1.841773e-03   7.535866e-19   3036752
  1.520836e+00   1.285617e-15   1.839884e-03   7.448602e-19   3058376
  1.527209e+00   1.277863e-15   1.839616e-03   7.384733e-19   3084210
  1.533583e+00   1.265646e-15   1.840948e-03   7.275233e-19   3111848
  1.539960e+00   1.256047e-15   1.841348e-03   7.194399e-19   3138890
  1.546339e+00   1.248217e-15   1.840626e-03   7.129330e-19   3164516
  1.552719e+00   1.237925e-15   1.842638e-03   7.032462e-19   3192656
  1.559097e+00   1.228111e-15   1.840555e-03   6.950144e-19   3215618
  1.565473e+00   1.218303e-15   1.840732e-03   6.876652e-19   3242888
  1.571846e+00   1.208695e-15   1.839114e-03   6.797615e-19   3265448
  1.578224e+00   1.200896e-15   1.843575e-03   6.722244e-19   3300842
  1.584604e+00   1.190081e-15   1.839884e-03   6.645196e-19   3321008
  1.590977e+00   1.179210e-15   1.839336e-03   6.561812e-19   3346406
  1.597352e+00   1.171239e-15   1.841596e-03   6.488662e-19   3377984
  1.603728e+00   1.160177e-15   1.839551e-03   6.405573e-19   3400352
  1.610103e+00   1.154907e-15   1.841321e-03   6.351988e-19   3431450
  1.616483e+00   1.142893e-15   1.841519e-03   6.263208e-19   3458768
  1.622859e+00   1.134752e-15   1.841183e-03   6.200073e-19   3484088
  1.629231e+00   1.127079e-15   1.838425e-03   6.137282e-19   3508218
  1.635610e+00   1.116224e-15   1.843946e-03   6.049614e-19   3545924
  1.641992e+00   1.107718e-15   1.841053e-03   5.990789e-19   3567530
  1.648369e+00   1.099244e-15   1.840183e-03   5.922175e-19   3595040
  1.654744e+00   1.089849e-15   1.840167e-03   5.853157e-19   3621176
  1.661115e+00   1.080962e-15   1.839521e-03   5.778912e-19   3647738
  1.667490e+00   1.072081e-15   1.841438e-03   5.707716e-19   3680480
  1.673870e+00   1.063144e-15   1.842082e-03   5.647288e-19   3709712
  1.680248e+00   1.054415e-15   1.840008e-03   5.584775e-19   3734702
  1.686623e+00   1.046258e-15   1.840362e-03   5.515812e-19   3762776
  1.692996e+00   1.037001e-15   1.839854e-03   5.457968e-19   3790514
  1.699371e+00   1.026943e-15   1.839908e-03   5.372224e-19   3820352
  1.705752e+00   1.019762e-15   1.844068e-03   5.326563e-19   3856016
  1.712131e+00   1.011954e-15   1.839690e-03   5.275601e-19   3876818
  1.718506e+00   1.002993e-15   1.839874e-03   5.212394e-19   3906332
  1.724882e+00   9.944411e-16   1.841963e-03   5.145773e-19   3938216
  1.731260e+00   9.859756e-16   1.840685e-03   5.084090e-19   3966354
  1.737636e+00   9.756429e-16   1.839695e-03   5.021538e-19   3993536
  1.744011e+00   9.688283e-16   1.840344e-03   4.971960e-19   4024034
  1.750392e+00   9.608355e-16   1.843071e-03   4.909646e-19   4060208
  1.756773e+00   9.522096e-16   1.840812e-03   4.854039e-19   4083632
  1.763145e+00   9.451146e-16   1.837811e-03   4.802550e-19   4107062
  1.769521e+00   9.355870e-16   1.842771e-03   4.727965e-19   4148072
  1.775893e+00   9.278534e-16   1.836707e-03   4.687750e-19   4163456
  1.782267e+00   9.202867e-16   1.842476e-03   4.630311e-19   4207994
  1.788652e+00   9.114156e-16   1.843367e-03   4.572343e-19   4239152
  1.795029e+00   9.050304e-16   1.839132e-03   4.533200e-19   4259426
  1.801407e+00   8.973446e-16   1.842524e-03   4.473700e-19   4299488
  1.807788e+00   8.886026e-16   1.840660e-03   4.416667e-19   4323692
  1.814162e+00   8.799587e-16   1.840093e-03   4.369463e-19   4353242
  1.820541e+00   8.742898e-16   1.841694e-03   4.318988e-19   4388792
