# power spectrum of delta_kessence
# redshift z=48.519767
# k              Pk             sigma(k)       sigma(Pk)      count
  5.011399e-03   7.399114e-11   7.667927e-04   1.371448e-11   18
  1.037418e-02   9.017841e-10   1.725047e-03   1.002138e-10   128
  1.616528e-02   3.394519e-09   1.646572e-03   1.894371e-10   314
  2.269071e-02   7.622407e-09   1.954354e-03   2.937753e-10   728
  2.897169e-02   1.423341e-08   1.717946e-03   4.777078e-10   1016
  3.518826e-02   1.950895e-08   1.880676e-03   4.808530e-10   1682
  4.169479e-02   2.899966e-08   1.831736e-03   6.107565e-10   2300
  4.790974e-02   3.658288e-08   1.770731e-03   6.873108e-10   2906
  5.429022e-02   4.897881e-08   1.892687e-03   8.076110e-10   4040
  6.068098e-02   6.264270e-08   1.775551e-03   9.460834e-10   4712
  6.698900e-02   7.964347e-08   1.857705e-03   1.024092e-09   6002
  7.346135e-02   9.389759e-08   1.857594e-03   1.115519e-09   7256
  7.977379e-02   1.111587e-07   1.772571e-03   1.254532e-09   8120
  8.609019e-02   1.218065e-07   1.864951e-03   1.221950e-09   9950
  9.253636e-02   1.340814e-07   1.853578e-03   1.239503e-09   11384
  9.885187e-02   1.426366e-07   1.809244e-03   1.281707e-09   12666
  1.052712e-01   1.567477e-07   1.889168e-03   1.256669e-09   15104
  1.117654e-01   1.726474e-07   1.850532e-03   1.355119e-09   16616
  1.180754e-01   1.957569e-07   1.799489e-03   1.469663e-09   18026
  1.244216e-01   2.143791e-07   1.853405e-03   1.469088e-09   20696
  1.308065e-01   2.323336e-07   1.827918e-03   1.563148e-09   22436
  1.371558e-01   2.549016e-07   1.845873e-03   1.628423e-09   24962
  1.435394e-01   2.669294e-07   1.831283e-03   1.601636e-09   27176
  1.499133e-01   2.752455e-07   1.847268e-03   1.601790e-09   29810
  1.562775e-01   2.863160e-07   1.828450e-03   1.617506e-09   32120
  1.626776e-01   2.961881e-07   1.865216e-03   1.577828e-09   35432
  1.690383e-01   3.153005e-07   1.814577e-03   1.636521e-09   37238
  1.754019e-01   3.330887e-07   1.856016e-03   1.643983e-09   41072
  1.817869e-01   3.499642e-07   1.834293e-03   1.695993e-09   43472
  1.881565e-01   3.742419e-07   1.848176e-03   1.730479e-09   47042
  1.945298e-01   3.990361e-07   1.829223e-03   1.807666e-09   49712
  2.008693e-01   4.132984e-07   1.840592e-03   1.808749e-09   53226
  2.072637e-01   4.185547e-07   1.853753e-03   1.743011e-09   57320
  2.136558e-01   4.335154e-07   1.831629e-03   1.776623e-09   60092
  2.200056e-01   4.460993e-07   1.839426e-03   1.769217e-09   63914
  2.263950e-01   4.555977e-07   1.849752e-03   1.738000e-09   68192
  2.327751e-01   4.707971e-07   1.833934e-03   1.765339e-09   71336
  2.391397e-01   4.852901e-07   1.845607e-03   1.762844e-09   75818
  2.455297e-01   5.029069e-07   1.844019e-03   1.784803e-09   79880
  2.518964e-01   5.239260e-07   1.834462e-03   1.807770e-09   83642
  2.582661e-01   5.443389e-07   1.840779e-03   1.827289e-09   88316
  2.646730e-01   5.577008e-07   1.859422e-03   1.829721e-09   93488
  2.710484e-01   5.696073e-07   1.827184e-03   1.832858e-09   96458
  2.773871e-01   5.816526e-07   1.829038e-03   1.852753e-09   101264
  2.837816e-01   5.910760e-07   1.862873e-03   1.796881e-09   107696
  2.901819e-01   5.985757e-07   1.837217e-03   1.795815e-09   111170
  2.965233e-01   6.202144e-07   1.822285e-03   1.823925e-09   115232
  3.028941e-01   6.321691e-07   1.855375e-03   1.808432e-09   122310
  3.093019e-01   6.459038e-07   1.843350e-03   1.813619e-09   126944
  3.156739e-01   6.652468e-07   1.828600e-03   1.837762e-09   131192
  3.220432e-01   6.804390e-07   1.844535e-03   1.845105e-09   137618
  3.284234e-01   6.943606e-07   1.836674e-03   1.837795e-09   142448
  3.347979e-01   7.025612e-07   1.844704e-03   1.818752e-09   148520
  3.411627e-01   7.164035e-07   1.831436e-03   1.844006e-09   153254
  3.475446e-01   7.300847e-07   1.852010e-03   1.827618e-09   160760
  3.539284e-01   7.320109e-07   1.835751e-03   1.788560e-09   165290
  3.603019e-01   7.502355e-07   1.840148e-03   1.812623e-09   171992
  3.666828e-01   7.627466e-07   1.840217e-03   1.816146e-09   177800
  3.730569e-01   7.780724e-07   1.843032e-03   1.818972e-09   184322
  3.794439e-01   7.904896e-07   1.841595e-03   1.817610e-09   190832
  3.858239e-01   8.017191e-07   1.839260e-03   1.821131e-09   196772
  3.921872e-01   8.180225e-07   1.836453e-03   1.821254e-09   202970
  3.985536e-01   8.319159e-07   1.839266e-03   1.816762e-09   210056
  4.049173e-01   8.436558e-07   1.832832e-03   1.814598e-09   216210
  4.112896e-01   8.537405e-07   1.841640e-03   1.799335e-09   224168
  4.176700e-01   8.588496e-07   1.840761e-03   1.796565e-09   230792
  4.240565e-01   8.764141e-07   1.846256e-03   1.797821e-09   238778
  4.304312e-01   8.807066e-07   1.831772e-03   1.781101e-09   243956
  4.367939e-01   8.981750e-07   1.845141e-03   1.786448e-09   252680
  4.431746e-01   9.081035e-07   1.842020e-03   1.783117e-09   260066
  4.495713e-01   9.206346e-07   1.849294e-03   1.775968e-09   268712
  4.559494e-01   9.352055e-07   1.834336e-03   1.786180e-09   274034
  4.623270e-01   9.372067e-07   1.847366e-03   1.762116e-09   283904
  4.687088e-01   9.504017e-07   1.837425e-03   1.762352e-09   290048
  4.750707e-01   9.580145e-07   1.836659e-03   1.763109e-09   297950
  4.814434e-01   9.709667e-07   1.842026e-03   1.764850e-09   306968
  4.878269e-01   9.882317e-07   1.843240e-03   1.764207e-09   315320
  4.942006e-01   9.885341e-07   1.835899e-03   1.740460e-09   322346
  5.005701e-01   1.001920e-06   1.842589e-03   1.736521e-09   331664
  5.069538e-01   1.009713e-06   1.844896e-03   1.726406e-09   340818
  5.133346e-01   1.027183e-06   1.837322e-03   1.740853e-09   348164
  5.197083e-01   1.034258e-06   1.843548e-03   1.729705e-09   357584
  5.260929e-01   1.043151e-06   1.846059e-03   1.717694e-09   367106
  5.324635e-01   1.052997e-06   1.832285e-03   1.719115e-09   373376
  5.388350e-01   1.059795e-06   1.848023e-03   1.702697e-09   385376
  5.452233e-01   1.071915e-06   1.842356e-03   1.708112e-09   393650
  5.516038e-01   1.077489e-06   1.840588e-03   1.696131e-09   402704
  5.579656e-01   1.086840e-06   1.830970e-03   1.698916e-09   409910
  5.643320e-01   1.099232e-06   1.843407e-03   1.698614e-09   422024
  5.707212e-01   1.104386e-06   1.846526e-03   1.675959e-09   432176
  5.771022e-01   1.116382e-06   1.837404e-03   1.687317e-09   440066
  5.834769e-01   1.127338e-06   1.841263e-03   1.676657e-09   450680
  5.898365e-01   1.133256e-06   1.831084e-03   1.675930e-09   457856
  5.962115e-01   1.146450e-06   1.848347e-03   1.661188e-09   472538
  6.026013e-01   1.156557e-06   1.839689e-03   1.672213e-09   480140
  6.089752e-01   1.160517e-06   1.841279e-03   1.659999e-09   490842
  6.153517e-01   1.171778e-06   1.838382e-03   1.656983e-09   500744
  6.217295e-01   1.178640e-06   1.842392e-03   1.648306e-09   511856
  6.281145e-01   1.187114e-06   1.844734e-03   1.642860e-09   523202
  6.344991e-01   1.195312e-06   1.840396e-03   1.641762e-09   532688
  6.408638e-01   1.204247e-06   1.834541e-03   1.647248e-09   541520
  6.472341e-01   1.211381e-06   1.842653e-03   1.630452e-09   555110
  6.536136e-01   1.220673e-06   1.839126e-03   1.622381e-09   564944
  6.599884e-01   1.222938e-06   1.839832e-03   1.615874e-09   576434
  6.663740e-01   1.232461e-06   1.844405e-03   1.608298e-09   588848
  6.727501e-01   1.242283e-06   1.838623e-03   1.609396e-09   597704
  6.791236e-01   1.247416e-06   1.842386e-03   1.598161e-09   610946
  6.855006e-01   1.257974e-06   1.837794e-03   1.598217e-09   620852
  6.918722e-01   1.263504e-06   1.841901e-03   1.591624e-09   633530
  6.982524e-01   1.269508e-06   1.841844e-03   1.583895e-09   645704
  7.046316e-01   1.277279e-06   1.840565e-03   1.582281e-09   656744
  7.110074e-01   1.287276e-06   1.841941e-03   1.573114e-09   669162
  7.173906e-01   1.295100e-06   1.843286e-03   1.567596e-09   681992
  7.237681e-01   1.299264e-06   1.838959e-03   1.566868e-09   692360
  7.301485e-01   1.305604e-06   1.844364e-03   1.557149e-09   707006
  7.365206e-01   1.312597e-06   1.834135e-03   1.554490e-09   714944
  7.428835e-01   1.324531e-06   1.841775e-03   1.549733e-09   730346
  7.492606e-01   1.328577e-06   1.838962e-03   1.545721e-09   742616
  7.556415e-01   1.336159e-06   1.843530e-03   1.535778e-09   756536
  7.620128e-01   1.338906e-06   1.836595e-03   1.532188e-09   766418
  7.683917e-01   1.344970e-06   1.845753e-03   1.519883e-09   783392
  7.747614e-01   1.352529e-06   1.833632e-03   1.526171e-09   790412
  7.811334e-01   1.359018e-06   1.848120e-03   1.510451e-09   810314
  7.875277e-01   1.366523e-06   1.843702e-03   1.507290e-09   821960
  7.938987e-01   1.374582e-06   1.834976e-03   1.505941e-09   831266
  8.002712e-01   1.374506e-06   1.843706e-03   1.493893e-09   848960
  8.066557e-01   1.381914e-06   1.842629e-03   1.491217e-09   861488
  8.130204e-01   1.388122e-06   1.833334e-03   1.492123e-09   871194
  8.193985e-01   1.393949e-06   1.847247e-03   1.475485e-09   891788
  8.257796e-01   1.400888e-06   1.838008e-03   1.477510e-09   900416
  8.321422e-01   1.409556e-06   1.836250e-03   1.472769e-09   914306
  8.385264e-01   1.410673e-06   1.847988e-03   1.460819e-09   933992
  8.449011e-01   1.415437e-06   1.834294e-03   1.460889e-09   940826
  8.512701e-01   1.424636e-06   1.842364e-03   1.460460e-09   960224
  8.576621e-01   1.428002e-06   1.846556e-03   1.446091e-09   976316
  8.640381e-01   1.430303e-06   1.835724e-03   1.438660e-09   985010
  8.704114e-01   1.437905e-06   1.843336e-03   1.436589e-09   1004024
  8.767898e-01   1.438281e-06   1.839706e-03   1.432058e-09   1016288
  8.831639e-01   1.450035e-06   1.840690e-03   1.427521e-09   1032290
  8.895470e-01   1.452634e-06   1.843156e-03   1.420223e-09   1048640
  8.959130e-01   1.454081e-06   1.831919e-03   1.415381e-09   1057250
  9.022937e-01   1.465552e-06   1.849588e-03   1.409237e-09   1083140
  9.086870e-01   1.470216e-06   1.840763e-03   1.410381e-09   1092248
  9.150555e-01   1.470511e-06   1.837510e-03   1.399953e-09   1105914
  9.214310e-01   1.474852e-06   1.841822e-03   1.389483e-09   1124744
  9.278120e-01   1.481544e-06   1.841202e-03   1.390175e-09   1139120
  9.341841e-01   1.487314e-06   1.838536e-03   1.382723e-09   1153490
  9.405650e-01   1.488989e-06   1.844187e-03   1.376423e-09   1172936
  9.469357e-01   1.495888e-06   1.834491e-03   1.378215e-09   1182158
  9.533110e-01   1.496868e-06   1.846126e-03   1.358875e-09   1206392
  9.596894e-01   1.500088e-06   1.835525e-03   1.359660e-09   1215224
  9.660641e-01   1.505266e-06   1.844936e-03   1.351102e-09   1237874
  9.724505e-01   1.511337e-06   1.841050e-03   1.351507e-09   1251800
  9.788233e-01   1.511631e-06   1.838619e-03   1.342871e-09   1265792
  9.851993e-01   1.521953e-06   1.843109e-03   1.344824e-09   1286306
  9.915793e-01   1.522176e-06   1.838809e-03   1.338689e-09   1299764
  9.979438e-01   1.527515e-06   1.836769e-03   1.331810e-09   1314554
  1.004319e+00   1.527267e-06   1.843595e-03   1.321860e-09   1337288
  1.010703e+00   1.532753e-06   1.840912e-03   1.316999e-09   1351304
  1.017077e+00   1.535087e-06   1.841769e-03   1.306543e-09   1369026
  1.023461e+00   1.538189e-06   1.843478e-03   1.305056e-09   1388456
  1.029842e+00   1.544052e-06   1.840406e-03   1.307615e-09   1402700
  1.036211e+00   1.545950e-06   1.837802e-03   1.299842e-09   1418282
  1.042587e+00   1.550367e-06   1.843596e-03   1.292457e-09   1440272
  1.048964e+00   1.553478e-06   1.838705e-03   1.288872e-09   1454114
  1.055341e+00   1.554439e-06   1.842603e-03   1.279281e-09   1475480
  1.061720e+00   1.560601e-06   1.840520e-03   1.277292e-09   1490936
  1.068091e+00   1.559737e-06   1.838519e-03   1.270351e-09   1507826
  1.074472e+00   1.564815e-06   1.844275e-03   1.268344e-09   1530764
  1.080850e+00   1.565318e-06   1.839052e-03   1.258387e-09   1543424
  1.087222e+00   1.572232e-06   1.841688e-03   1.257079e-09   1564946
  1.093594e+00   1.574464e-06   1.835875e-03   1.251145e-09   1578536
  1.099970e+00   1.576370e-06   1.845670e-03   1.243054e-09   1604882
  1.106358e+00   1.579392e-06   1.842454e-03   1.240547e-09   1621304
  1.112736e+00   1.579641e-06   1.839545e-03   1.238207e-09   1637024
  1.119103e+00   1.584384e-06   1.837794e-03   1.234462e-09   1654134
  1.125480e+00   1.586374e-06   1.844256e-03   1.225622e-09   1679168
  1.131864e+00   1.589201e-06   1.841903e-03   1.219844e-09   1695944
  1.138235e+00   1.592983e-06   1.836568e-03   1.217722e-09   1710602
  1.144612e+00   1.595288e-06   1.844777e-03   1.212121e-09   1737056
  1.150994e+00   1.597327e-06   1.840390e-03   1.207306e-09   1752602
  1.157370e+00   1.596839e-06   1.839227e-03   1.200445e-09   1772024
  1.163752e+00   1.600174e-06   1.844090e-03   1.196192e-09   1795364
  1.170126e+00   1.601854e-06   1.836467e-03   1.192954e-09   1807634
  1.176490e+00   1.604856e-06   1.836183e-03   1.187222e-09   1827608
  1.182859e+00   1.605616e-06   1.840789e-03   1.180294e-09   1850984
  1.189240e+00   1.606205e-06   1.844107e-03   1.172160e-09   1874618
  1.195619e+00   1.609267e-06   1.838445e-03   1.171119e-09   1889504
  1.202001e+00   1.611771e-06   1.845373e-03   1.164873e-09   1916870
  1.208383e+00   1.611171e-06   1.838254e-03   1.160265e-09   1929728
  1.214760e+00   1.616909e-06   1.843674e-03   1.156549e-09   1955408
  1.221131e+00   1.616389e-06   1.834427e-03   1.151124e-09   1966842
  1.227503e+00   1.617078e-06   1.843005e-03   1.144834e-09   1996640
  1.233886e+00   1.620146e-06   1.842690e-03   1.143734e-09   2016392
  1.240265e+00   1.621975e-06   1.839730e-03   1.135390e-09   2034722
  1.246641e+00   1.619659e-06   1.840813e-03   1.129272e-09   2056460
  1.253014e+00   1.622978e-06   1.838931e-03   1.127155e-09   2075186
  1.259388e+00   1.624051e-06   1.840566e-03   1.122410e-09   2099096
  1.265761e+00   1.626945e-06   1.837910e-03   1.118824e-09   2116832
  1.272138e+00   1.625739e-06   1.844119e-03   1.109816e-09   2145146
  1.278526e+00   1.625388e-06   1.844128e-03   1.104132e-09   2166776
  1.284904e+00   1.628924e-06   1.838822e-03   1.102004e-09   2181848
  1.291273e+00   1.630079e-06   1.838785e-03   1.099174e-09   2203766
  1.297646e+00   1.629798e-06   1.840619e-03   1.090519e-09   2227664
  1.304025e+00   1.631171e-06   1.842381e-03   1.087513e-09   2252138
  1.310403e+00   1.629692e-06   1.839825e-03   1.082252e-09   2271152
  1.316777e+00   1.632570e-06   1.840536e-03   1.077298e-09   2293256
  1.323154e+00   1.633913e-06   1.842085e-03   1.075912e-09   2318130
  1.329536e+00   1.636149e-06   1.841956e-03   1.070606e-09   2340824
  1.335910e+00   1.633997e-06   1.838342e-03   1.065213e-09   2357990
  1.342292e+00   1.635279e-06   1.846396e-03   1.057687e-09   2391176
  1.348671e+00   1.637207e-06   1.837209e-03   1.055622e-09   2401808
  1.355040e+00   1.638695e-06   1.840258e-03   1.051150e-09   2428442
  1.361418e+00   1.637320e-06   1.842645e-03   1.044615e-09   2454752
  1.367798e+00   1.635217e-06   1.841270e-03   1.039797e-09   2475872
  1.374172e+00   1.636017e-06   1.838763e-03   1.036083e-09   2495822
  1.380543e+00   1.636214e-06   1.839940e-03   1.030157e-09   2520248
  1.386922e+00   1.635495e-06   1.844043e-03   1.025866e-09   2549186
  1.393299e+00   1.638061e-06   1.837661e-03   1.022019e-09   2564768
  1.399672e+00   1.639669e-06   1.841284e-03   1.019745e-09   2592968
  1.406054e+00   1.637084e-06   1.843378e-03   1.013519e-09   2619818
  1.412431e+00   1.640111e-06   1.838027e-03   1.011810e-09   2636384
  1.418803e+00   1.637021e-06   1.840293e-03   1.004784e-09   2662220
  1.425180e+00   1.638591e-06   1.842524e-03   9.994928e-10   2689770
  1.431560e+00   1.638678e-06   1.840994e-03   9.950697e-10   2712296
  1.437933e+00   1.637245e-06   1.838431e-03   9.906734e-10   2732618
  1.444312e+00   1.636176e-06   1.843932e-03   9.832897e-10   2765264
  1.450695e+00   1.639369e-06   1.840894e-03   9.821230e-10   2784824
  1.457066e+00   1.636954e-06   1.837138e-03   9.765336e-10   2804162
  1.463445e+00   1.638971e-06   1.844971e-03   9.721343e-10   2840612
  1.469825e+00   1.637876e-06   1.839130e-03   9.698665e-10   2855576
  1.476198e+00   1.634645e-06   1.840533e-03   9.626803e-10   2883458
  1.482571e+00   1.637051e-06   1.838217e-03   9.610368e-10   2904128
  1.488946e+00   1.636489e-06   1.843378e-03   9.555265e-10   2937026
  1.495325e+00   1.635698e-06   1.839218e-03   9.510748e-10   2956976
  1.501703e+00   1.634030e-06   1.841967e-03   9.453335e-10   2986472
  1.508082e+00   1.635479e-06   1.840166e-03   9.427002e-10   3008918
  1.514460e+00   1.632195e-06   1.841773e-03   9.365190e-10   3036752
  1.520836e+00   1.634078e-06   1.839884e-03   9.342716e-10   3058376
  1.527209e+00   1.634283e-06   1.839616e-03   9.304800e-10   3084210
  1.533583e+00   1.631951e-06   1.840948e-03   9.245797e-10   3111848
  1.539960e+00   1.631460e-06   1.841348e-03   9.204458e-10   3138890
  1.546339e+00   1.630323e-06   1.840626e-03   9.177012e-10   3164516
  1.552719e+00   1.629443e-06   1.842638e-03   9.112382e-10   3192656
  1.559097e+00   1.627464e-06   1.840555e-03   9.071335e-10   3215618
  1.565473e+00   1.627362e-06   1.840732e-03   9.039353e-10   3242888
  1.571846e+00   1.626895e-06   1.839114e-03   8.993978e-10   3265448
  1.578224e+00   1.625484e-06   1.843575e-03   8.950550e-10   3300842
  1.584604e+00   1.622863e-06   1.839884e-03   8.909038e-10   3321008
  1.590977e+00   1.621478e-06   1.839336e-03   8.869867e-10   3346406
  1.597352e+00   1.620493e-06   1.841596e-03   8.815544e-10   3377984
  1.603728e+00   1.619721e-06   1.839551e-03   8.772841e-10   3400352
  1.610103e+00   1.621144e-06   1.841321e-03   8.750891e-10   3431450
  1.616483e+00   1.617151e-06   1.841519e-03   8.688849e-10   3458768
  1.622859e+00   1.615983e-06   1.841183e-03   8.657911e-10   3484088
  1.629231e+00   1.617219e-06   1.838425e-03   8.635923e-10   3508218
  1.635610e+00   1.614773e-06   1.843946e-03   8.583327e-10   3545924
  1.641992e+00   1.611996e-06   1.841053e-03   8.542030e-10   3567530
  1.648369e+00   1.611659e-06   1.840183e-03   8.500424e-10   3595040
  1.654744e+00   1.611302e-06   1.840167e-03   8.477758e-10   3621176
  1.661115e+00   1.607698e-06   1.839521e-03   8.412082e-10   3647738
  1.667490e+00   1.607026e-06   1.841438e-03   8.370818e-10   3680480
  1.673870e+00   1.604512e-06   1.842082e-03   8.334939e-10   3709712
  1.680248e+00   1.603624e-06   1.840008e-03   8.300820e-10   3734702
  1.686623e+00   1.600715e-06   1.840362e-03   8.248604e-10   3762776
  1.692996e+00   1.599049e-06   1.839854e-03   8.224475e-10   3790514
  1.699371e+00   1.597526e-06   1.839908e-03   8.173430e-10   3820352
  1.705752e+00   1.596030e-06   1.844068e-03   8.129086e-10   3856016
  1.712131e+00   1.595047e-06   1.839690e-03   8.114084e-10   3876818
  1.718506e+00   1.594209e-06   1.839874e-03   8.064293e-10   3906332
  1.724882e+00   1.591942e-06   1.841963e-03   8.023323e-10   3938216
  1.731260e+00   1.587652e-06   1.840685e-03   7.973255e-10   3966354
  1.737636e+00   1.585889e-06   1.839695e-03   7.936028e-10   3993536
  1.744011e+00   1.584152e-06   1.840344e-03   7.907967e-10   4024034
  1.750392e+00   1.584362e-06   1.843071e-03   7.864447e-10   4060208
  1.756773e+00   1.579015e-06   1.840812e-03   7.814789e-10   4083632
  1.763145e+00   1.580885e-06   1.837811e-03   7.808427e-10   4107062
  1.769521e+00   1.575932e-06   1.842771e-03   7.736664e-10   4148072
  1.775893e+00   1.574299e-06   1.836707e-03   7.719313e-10   4163456
  1.782267e+00   1.571883e-06   1.842476e-03   7.660765e-10   4207994
  1.788652e+00   1.569388e-06   1.843367e-03   7.627102e-10   4239152
  1.795029e+00   1.568506e-06   1.839132e-03   7.606422e-10   4259426
  1.801407e+00   1.565588e-06   1.842524e-03   7.553403e-10   4299488
  1.807788e+00   1.564507e-06   1.840660e-03   7.522148e-10   4323692
  1.814162e+00   1.560633e-06   1.840093e-03   7.488288e-10   4353242
  1.820541e+00   1.560451e-06   1.841694e-03   7.447909e-10   4388792
