# power spectrum of delta
# redshift z=9.921501
# k              Pk             sigma(k)       sigma(Pk)      count
  3.926991e-03   4.460418e-07   3.512237e-11   1.798044e-07   6
  6.468504e-03   2.916409e-06   9.292307e-04   6.808376e-07   26
  1.075752e-02   2.116966e-05   1.401573e-03   2.444470e-06   114
  1.536034e-02   7.550786e-05   1.321130e-03   5.369789e-06   218
  1.986055e-02   1.348854e-04   1.282852e-03   7.139323e-06   374
  2.412735e-02   2.345909e-04   1.070437e-03   1.078771e-05   474
  2.806277e-02   3.689550e-04   1.114764e-03   1.573342e-05   650
  3.226384e-02   4.544602e-04   1.228263e-03   1.505958e-05   938
  3.651078e-02   5.790893e-04   1.191974e-03   1.729940e-05   1158
  4.085013e-02   7.139466e-04   1.255331e-03   1.767098e-05   1538
  4.514216e-02   9.347089e-04   1.197883e-03   2.265472e-05   1752
  4.940297e-02   1.062076e-03   1.270218e-03   2.265208e-05   2210
  5.382476e-02   1.343648e-03   1.313135e-03   2.720203e-05   2690
  5.822499e-02   1.598197e-03   1.260291e-03   3.000987e-05   3054
  6.261788e-02   1.919289e-03   1.278262e-03   3.240735e-05   3602
  6.689321e-02   2.223459e-03   1.192161e-03   3.600597e-05   3842
  7.113570e-02   2.527038e-03   1.241459e-03   3.757587e-05   4554
  7.543827e-02   2.748095e-03   1.223626e-03   3.901717e-05   5030
  7.964244e-02   3.074146e-03   1.192059e-03   4.293248e-05   5474
  8.383361e-02   3.333742e-03   1.204502e-03   4.316914e-05   6162
  8.813706e-02   3.502025e-03   1.244010e-03   4.083845e-05   7016
  9.251506e-02   3.735051e-03   1.282007e-03   4.206517e-05   7818
  9.690760e-02   3.932637e-03   1.275623e-03   4.360709e-05   8582
  1.012249e-01   4.099758e-03   1.222801e-03   4.226398e-05   8954
  1.055230e-01   4.416474e-03   1.275661e-03   4.313164e-05   10170
  1.098886e-01   4.677437e-03   1.242528e-03   4.540130e-05   10826
  1.141614e-01   5.145970e-03   1.215228e-03   4.862861e-05   11438
  1.184437e-01   5.465621e-03   1.241708e-03   4.922390e-05   12594
  1.227045e-01   5.830627e-03   1.208460e-03   5.054066e-05   13130
  1.269880e-01   6.273084e-03   1.247270e-03   5.222744e-05   14586
  1.313025e-01   6.576474e-03   1.229078e-03   5.262072e-05   15242
  1.356256e-01   7.055215e-03   1.268369e-03   5.550540e-05   16772
  1.399394e-01   7.267866e-03   1.224094e-03   5.514848e-05   17178
  1.442192e-01   7.558187e-03   1.256219e-03   5.448535e-05   18722
  1.485429e-01   7.654420e-03   1.247601e-03   5.490581e-05   19706
  1.528259e-01   7.813774e-03   1.235493e-03   5.428108e-05   20694
  1.571269e-01   8.062382e-03   1.247928e-03   5.489138e-05   22154
  1.614322e-01   8.243970e-03   1.238069e-03   5.448098e-05   23210
  1.657530e-01   8.498499e-03   1.247771e-03   5.405089e-05   24762
  1.700419e-01   8.955667e-03   1.219659e-03   5.597609e-05   25418
  1.743047e-01   9.263122e-03   1.232581e-03   5.593075e-05   27030
  1.785948e-01   9.521594e-03   1.236925e-03   5.699202e-05   28400
  1.829249e-01   9.932594e-03   1.260632e-03   5.767322e-05   30314
  1.872537e-01   1.047440e-02   1.245689e-03   5.950893e-05   31242
  1.915471e-01   1.086599e-02   1.243795e-03   6.114171e-05   32726
  1.958851e-01   1.124721e-02   1.262333e-03   6.082107e-05   34802
  2.001902e-01   1.157637e-02   1.225777e-03   6.186424e-05   35298
  2.044527e-01   1.165925e-02   1.231750e-03   6.061845e-05   37106
  2.087345e-01   1.179285e-02   1.233995e-03   5.979688e-05   38750
  2.130597e-01   1.221649e-02   1.253313e-03   6.056168e-05   41082
  2.173474e-01   1.226543e-02   1.213580e-03   6.047787e-05   41330
  2.216268e-01   1.256030e-02   1.248206e-03   5.985513e-05   44226
  2.259811e-01   1.271603e-02   1.262369e-03   5.919585e-05   46256
  2.302954e-01   1.298561e-02   1.236821e-03   5.973092e-05   47006
  2.346000e-01   1.320685e-02   1.253826e-03   5.914556e-05   49506
  2.389041e-01   1.357706e-02   1.236946e-03   6.071095e-05   50618
  2.432051e-01   1.395101e-02   1.252069e-03   6.005706e-05   53114
  2.475055e-01   1.425421e-02   1.235789e-03   6.155119e-05   54366
  2.518059e-01   1.467425e-02   1.244531e-03   6.166165e-05   56834
  2.560686e-01   1.491151e-02   1.213941e-03   6.233641e-05   57258
  2.603901e-01   1.549331e-02   1.274431e-03   6.195922e-05   62378
  2.647358e-01   1.552334e-02   1.225553e-03   6.254055e-05   61850
  2.690012e-01   1.588139e-02   1.236600e-03   6.310255e-05   64284
  2.733015e-01   1.594611e-02   1.248977e-03   6.165631e-05   66938
  2.776367e-01   1.627103e-02   1.258384e-03   6.268413e-05   69602
  2.819415e-01   1.638072e-02   1.232881e-03   6.151963e-05   70242
  2.862215e-01   1.660157e-02   1.244813e-03   6.168138e-05   73166
  2.905544e-01   1.674926e-02   1.257712e-03   6.070449e-05   76370
  2.948557e-01   1.715986e-02   1.224268e-03   6.206878e-05   76578
  2.991694e-01   1.743015e-02   1.260194e-03   6.162923e-05   81362
  3.034794e-01   1.776278e-02   1.220452e-03   6.178259e-05   80994
  3.077617e-01   1.789999e-02   1.245850e-03   6.151373e-05   85046
  3.120682e-01   1.804788e-02   1.236732e-03   6.154079e-05   86552
  3.163691e-01   1.862473e-02   1.248599e-03   6.229257e-05   89754
  3.206760e-01   1.889231e-02   1.241846e-03   6.268131e-05   91538
  3.249908e-01   1.907882e-02   1.257274e-03   6.189335e-05   95198
  3.292984e-01   1.938958e-02   1.234300e-03   6.266422e-05   96066
  3.335953e-01   1.959052e-02   1.250578e-03   6.160077e-05   99890
  3.379016e-01   1.965544e-02   1.237173e-03   6.230261e-05   101562
  3.421850e-01   1.989453e-02   1.235122e-03   6.194538e-05   103994
  3.465039e-01   2.016374e-02   1.254469e-03   6.125985e-05   108566
  3.508098e-01   2.029786e-02   1.225687e-03   6.185637e-05   108570
  3.550962e-01   2.048584e-02   1.245765e-03   6.037286e-05   113162
  3.594096e-01   2.071972e-02   1.239769e-03   6.114170e-05   115136
  3.637064e-01   2.109593e-02   1.244989e-03   6.161696e-05   118110
  3.680190e-01   2.128043e-02   1.250013e-03   6.139897e-05   121466
  3.723377e-01   2.153171e-02   1.247712e-03   6.104537e-05   124154
  3.766409e-01   2.181201e-02   1.239592e-03   6.192582e-05   126282
  3.809305e-01   2.198931e-02   1.239411e-03   6.133446e-05   129206
  3.852310e-01   2.218164e-02   1.240944e-03   6.135026e-05   132714
  3.895315e-01   2.241855e-02   1.236189e-03   6.120871e-05   135002
  3.938308e-01   2.292736e-02   1.243110e-03   6.156214e-05   138866
  3.981506e-01   2.293915e-02   1.245584e-03   6.120741e-05   142146
  4.024599e-01   2.336445e-02   1.240083e-03   6.155397e-05   144476
  4.067698e-01   2.332195e-02   1.249157e-03   6.081516e-05   148274
  4.110722e-01   2.356909e-02   1.241511e-03   6.059618e-05   150498
  4.153656e-01   2.365443e-02   1.240169e-03   6.068397e-05   153578
  4.196566e-01   2.377388e-02   1.243070e-03   6.034050e-05   156974
  4.239772e-01   2.424082e-02   1.254355e-03   6.048280e-05   162090
  4.282871e-01   2.431828e-02   1.232977e-03   6.037513e-05   162674
  4.325900e-01   2.442487e-02   1.248247e-03   5.947577e-05   168186
  4.368889e-01   2.482261e-02   1.230518e-03   6.046986e-05   168986
  4.411796e-01   2.501265e-02   1.243170e-03   6.006693e-05   174302
  4.454808e-01   2.518613e-02   1.235964e-03   6.005256e-05   176394
  4.497749e-01   2.543226e-02   1.243559e-03   5.991044e-05   180848
  4.540988e-01   2.562121e-02   1.252525e-03   5.940001e-05   185522
  4.584177e-01   2.579379e-02   1.245424e-03   5.983817e-05   187758
  4.627131e-01   2.584881e-02   1.237877e-03   5.929261e-05   190322
  4.670077e-01   2.608352e-02   1.244159e-03   5.926324e-05   194898
  4.713189e-01   2.622339e-02   1.244577e-03   5.891412e-05   198914
  4.756220e-01   2.635503e-02   1.237959e-03   5.916147e-05   201386
  4.799286e-01   2.664236e-02   1.245790e-03   5.900193e-05   206694
  4.842396e-01   2.687331e-02   1.237579e-03   5.917465e-05   208970
  4.885355e-01   2.716956e-02   1.239312e-03   5.910128e-05   212858
  4.928323e-01   2.712613e-02   1.239690e-03   5.843394e-05   216432
  4.971331e-01   2.730227e-02   1.245356e-03   5.804482e-05   220910
  5.014504e-01   2.751502e-02   1.251792e-03   5.792697e-05   225818
  5.057482e-01   2.765211e-02   1.234295e-03   5.807138e-05   226578
  5.100535e-01   2.793551e-02   1.253105e-03   5.785762e-05   234314
  5.143672e-01   2.817660e-02   1.238530e-03   5.814261e-05   235338
  5.186759e-01   2.826313e-02   1.249367e-03   5.763209e-05   241886
  5.229717e-01   2.861854e-02   1.226886e-03   5.823061e-05   241514
  5.272665e-01   2.860537e-02   1.249867e-03   5.720552e-05   250122
  5.315791e-01   2.866165e-02   1.236342e-03   5.696601e-05   251450
  5.358794e-01   2.896187e-02   1.243646e-03   5.736275e-05   256940
  5.401773e-01   2.890780e-02   1.237459e-03   5.670323e-05   259314
  5.444679e-01   2.922753e-02   1.243546e-03   5.674457e-05   264602
  5.487766e-01   2.935767e-02   1.245963e-03   5.661202e-05   269602
  5.530817e-01   2.950703e-02   1.241744e-03   5.648570e-05   272710
  5.573981e-01   2.958987e-02   1.251961e-03   5.579453e-05   279650
  5.617030e-01   2.974353e-02   1.232873e-03   5.654695e-05   279618
  5.660045e-01   3.012140e-02   1.249306e-03   5.616771e-05   288074
  5.703137e-01   2.995744e-02   1.235438e-03   5.586460e-05   289010
  5.746156e-01   3.023674e-02   1.247203e-03   5.556867e-05   296310
  5.789244e-01   3.041213e-02   1.237400e-03   5.585261e-05   298346
  5.832246e-01   3.054047e-02   1.245397e-03   5.561958e-05   304256
  5.875350e-01   3.065799e-02   1.246290e-03   5.521675e-05   308826
  5.918408e-01   3.091563e-02   1.243049e-03   5.546430e-05   312590
  5.961529e-01   3.100898e-02   1.248985e-03   5.512087e-05   318762
  6.004593e-01   3.123616e-02   1.240718e-03   5.486787e-05   321074
  6.047547e-01   3.135356e-02   1.240799e-03   5.516499e-05   326378
  6.090549e-01   3.142224e-02   1.240211e-03   5.502348e-05   330738
  6.133630e-01   3.155702e-02   1.246939e-03   5.456634e-05   337382
  6.176694e-01   3.178990e-02   1.237203e-03   5.446828e-05   339626
  6.219644e-01   3.188970e-02   1.240002e-03   5.459356e-05   345162
  6.262616e-01   3.188442e-02   1.239266e-03   5.401661e-05   349400
  6.305613e-01   3.228131e-02   1.244262e-03   5.436038e-05   355382
  6.348730e-01   3.234194e-02   1.246769e-03   5.421951e-05   360954
  6.391819e-01   3.240268e-02   1.243477e-03   5.387273e-05   364778
  6.435002e-01   3.258255e-02   1.250914e-03   5.373973e-05   372426
  6.478087e-01   3.269677e-02   1.236390e-03   5.375986e-05   372794
  6.521037e-01   3.272178e-02   1.244101e-03   5.310699e-05   380486
  6.564090e-01   3.283794e-02   1.239094e-03   5.306654e-05   384066
  6.607107e-01   3.287708e-02   1.242538e-03   5.312479e-05   390434
  6.650234e-01   3.303566e-02   1.243376e-03   5.276543e-05   395762
  6.693144e-01   3.324420e-02   1.232039e-03   5.310498e-05   397062
  6.736189e-01   3.330447e-02   1.251120e-03   5.242275e-05   408176
  6.779316e-01   3.347222e-02   1.240403e-03   5.275972e-05   409362
  6.822349e-01   3.361245e-02   1.245861e-03   5.243654e-05   416666
  6.865353e-01   3.381111e-02   1.238522e-03   5.240377e-05   419186
  6.908366e-01   3.380158e-02   1.246872e-03   5.210599e-05   427638
  6.951419e-01   3.379849e-02   1.239127e-03   5.200294e-05   430274
  6.994439e-01   3.399428e-02   1.244186e-03   5.154625e-05   438050
  7.037510e-01   3.420240e-02   1.238974e-03   5.180354e-05   441426
  7.080449e-01   3.431658e-02   1.239295e-03   5.160891e-05   446942
  7.123499e-01   3.431839e-02   1.242845e-03   5.132689e-05   453890
  7.166480e-01   3.449031e-02   1.237274e-03   5.126386e-05   456816
  7.209534e-01   3.457856e-02   1.248635e-03   5.102516e-05   466370
  7.252656e-01   3.467516e-02   1.242502e-03   5.105958e-05   469518
  7.295732e-01   3.478906e-02   1.245116e-03   5.070640e-05   476330
  7.338725e-01   3.486466e-02   1.238721e-03   5.063397e-05   478994
  7.381744e-01   3.498709e-02   1.246904e-03   5.026662e-05   488394
  7.424884e-01   3.520668e-02   1.242990e-03   5.037913e-05   492698
  7.467973e-01   3.527825e-02   1.243980e-03   5.036107e-05   498974
  7.510935e-01   3.525490e-02   1.234693e-03   5.027672e-05   501090
  7.553919e-01   3.542195e-02   1.244343e-03   4.989685e-05   511082
  7.597004e-01   3.551811e-02   1.240179e-03   4.980616e-05   514784
  7.639967e-01   3.552238e-02   1.240878e-03   4.954623e-05   520350
  7.683091e-01   3.561781e-02   1.249509e-03   4.918325e-05   530138
  7.726120e-01   3.572034e-02   1.236517e-03   4.942936e-05   529794
  7.769160e-01   3.591459e-02   1.251602e-03   4.907075e-05   542762
  7.812225e-01   3.580943e-02   1.235289e-03   4.898669e-05   541634
  7.855259e-01   3.609883e-02   1.250892e-03   4.887778e-05   554670
  7.898355e-01   3.605464e-02   1.237417e-03   4.875308e-05   554834
  7.941302e-01   3.626243e-02   1.241778e-03   4.872133e-05   563306
  7.984446e-01   3.614022e-02   1.246587e-03   4.837793e-05   571794
  8.027475e-01   3.631246e-02   1.236199e-03   4.847815e-05   572894
  8.070387e-01   3.635148e-02   1.240006e-03   4.810007e-05   580776
  8.113339e-01   3.639276e-02   1.240324e-03   4.823536e-05   586418
  8.156437e-01   3.658147e-02   1.249813e-03   4.796875e-05   597386
  8.199632e-01   3.662559e-02   1.245750e-03   4.752771e-05   601362
  8.242739e-01   3.658043e-02   1.245729e-03   4.727246e-05   608078
  8.285755e-01   3.674601e-02   1.238705e-03   4.750922e-05   610898
  8.328766e-01   3.688308e-02   1.245632e-03   4.723820e-05   621330
  8.371838e-01   3.685042e-02   1.238702e-03   4.709429e-05   624722
  8.414815e-01   3.709075e-02   1.240373e-03   4.713386e-05   631958
  8.457801e-01   3.699447e-02   1.238534e-03   4.690966e-05   637602
  8.500779e-01   3.715518e-02   1.240333e-03   4.697976e-05   644840
  8.543927e-01   3.726398e-02   1.249060e-03   4.648610e-05   655578
  8.587058e-01   3.720093e-02   1.242590e-03   4.654787e-05   657818
  8.630031e-01   3.727837e-02   1.240971e-03   4.627328e-05   664022
  8.673080e-01   3.743274e-02   1.245948e-03   4.627689e-05   672954
  8.716138e-01   3.752035e-02   1.242705e-03   4.621076e-05   678338
  8.759180e-01   3.755078e-02   1.242125e-03   4.607954e-05   685130
  8.802218e-01   3.750744e-02   1.242115e-03   4.584434e-05   692166
  8.845144e-01   3.766919e-02   1.234388e-03   4.585425e-05   694682
  8.888163e-01   3.765496e-02   1.247301e-03   4.536926e-05   709146
  8.931296e-01   3.770465e-02   1.239356e-03   4.524995e-05   711506
  8.974273e-01   3.775946e-02   1.240782e-03   4.506225e-05   718148
  9.017357e-01   3.784153e-02   1.247217e-03   4.503006e-05   729042
  9.060468e-01   3.801414e-02   1.242130e-03   4.512711e-05   732410
  9.103467e-01   3.792293e-02   1.242891e-03   4.483662e-05   739946
  9.146534e-01   3.807332e-02   1.244593e-03   4.475876e-05   747906
  9.189582e-01   3.803637e-02   1.242506e-03   4.455856e-05   754214
  9.232643e-01   3.808213e-02   1.242436e-03   4.427792e-05   761618
  9.275643e-01   3.816149e-02   1.239211e-03   4.424756e-05   766986
  9.318660e-01   3.828027e-02   1.241058e-03   4.421518e-05   775922
  9.361725e-01   3.828757e-02   1.241758e-03   4.389940e-05   783198
  9.404756e-01   3.832954e-02   1.240472e-03   4.395305e-05   789080
  9.447763e-01   3.843791e-02   1.242851e-03   4.388404e-05   796850
  9.490869e-01   3.845677e-02   1.247937e-03   4.366727e-05   807522
  9.533924e-01   3.845261e-02   1.239848e-03   4.348394e-05   808994
  9.577007e-01   3.844062e-02   1.250666e-03   4.298879e-05   824078
  9.620112e-01   3.851918e-02   1.238593e-03   4.324470e-05   823554
  9.663007e-01   3.858801e-02   1.239589e-03   4.309531e-05   831818
  9.705964e-01   3.858721e-02   1.239567e-03   4.284747e-05   839906
  9.749005e-01   3.856298e-02   1.243918e-03   4.267761e-05   850518
  9.792141e-01   3.864947e-02   1.243935e-03   4.262102e-05   858194
  9.835154e-01   3.867333e-02   1.237898e-03   4.254723e-05   861138
  9.878201e-01   3.878678e-02   1.246238e-03   4.241179e-05   874328
  9.921277e-01   3.866688e-02   1.242167e-03   4.217317e-05   877754
  9.964333e-01   3.888192e-02   1.246740e-03   4.213766e-05   889110
  1.000736e+00   3.880386e-02   1.239362e-03   4.205981e-05   891266
  1.005045e+00   3.896377e-02   1.250650e-03   4.176792e-05   907490
  1.009351e+00   3.899284e-02   1.236362e-03   4.183810e-05   905442
  1.013648e+00   3.891774e-02   1.243368e-03   4.158214e-05   919094
  1.017959e+00   3.896623e-02   1.242743e-03   4.133882e-05   926706
  1.022255e+00   3.901928e-02   1.235935e-03   4.143090e-05   929066
  1.026557e+00   3.902876e-02   1.244945e-03   4.113945e-05   944210
  1.030871e+00   3.914370e-02   1.244094e-03   4.129798e-05   950280
  1.035172e+00   3.912336e-02   1.240473e-03   4.111514e-05   954830
  1.039482e+00   3.914818e-02   1.249830e-03   4.079224e-05   969770
  1.043793e+00   3.926020e-02   1.241385e-03   4.086316e-05   971370
  1.048084e+00   3.924081e-02   1.238565e-03   4.071919e-05   976970
  1.052389e+00   3.921670e-02   1.248650e-03   4.044140e-05   993998
  1.056701e+00   3.918919e-02   1.239979e-03   4.027827e-05   995850
  1.061001e+00   3.932063e-02   1.241064e-03   4.026248e-05   1004930
  1.065300e+00   3.936301e-02   1.238399e-03   4.021231e-05   1011570
  1.069600e+00   3.925379e-02   1.241097e-03   3.997452e-05   1021550
  1.073904e+00   3.939242e-02   1.241994e-03   3.996713e-05   1030184
  1.078211e+00   3.936101e-02   1.244718e-03   3.965916e-05   1039458
  1.082516e+00   3.926003e-02   1.242818e-03   3.959184e-05   1046378
  1.086817e+00   3.935504e-02   1.241429e-03   3.953321e-05   1053266
  1.091121e+00   3.938907e-02   1.245400e-03   3.933782e-05   1065414
  1.095433e+00   3.947374e-02   1.244145e-03   3.922020e-05   1073258
  1.099737e+00   3.942878e-02   1.239997e-03   3.915587e-05   1078522
  1.104033e+00   3.942105e-02   1.238538e-03   3.902070e-05   1086226
  1.108335e+00   3.932585e-02   1.242384e-03   3.885228e-05   1098374
  1.112647e+00   3.947616e-02   1.244052e-03   3.878636e-05   1108626
  1.116952e+00   3.954603e-02   1.239083e-03   3.879787e-05   1111466
  1.121259e+00   3.954081e-02   1.247025e-03   3.842671e-05   1127384
  1.125557e+00   3.960223e-02   1.234728e-03   3.866558e-05   1123506
  1.129854e+00   3.953954e-02   1.248772e-03   3.830521e-05   1144814
  1.134168e+00   3.946900e-02   1.243865e-03   3.816530e-05   1149074
  1.138474e+00   3.949183e-02   1.244851e-03   3.803863e-05   1159050
  1.142776e+00   3.957921e-02   1.239251e-03   3.800788e-05   1163282
  1.147076e+00   3.955123e-02   1.243109e-03   3.781206e-05   1176462
  1.151386e+00   3.960663e-02   1.242518e-03   3.780580e-05   1185266
  1.155692e+00   3.949879e-02   1.242010e-03   3.748433e-05   1193066
  1.159992e+00   3.955742e-02   1.238572e-03   3.748159e-05   1199058
  1.164291e+00   3.958182e-02   1.242339e-03   3.740782e-05   1210400
  1.168599e+00   3.955612e-02   1.245940e-03   3.723451e-05   1222238
  1.172906e+00   3.948973e-02   1.242668e-03   3.702488e-05   1227642
  1.177204e+00   3.957589e-02   1.241123e-03   3.710170e-05   1235594
  1.181510e+00   3.959956e-02   1.246370e-03   3.702711e-05   1249850
  1.185818e+00   3.968912e-02   1.242248e-03   3.700320e-05   1255470
  1.190121e+00   3.955997e-02   1.240701e-03   3.673722e-05   1264130
  1.194423e+00   3.959298e-02   1.241739e-03   3.659691e-05   1274130
  1.198728e+00   3.960767e-02   1.242253e-03   3.654597e-05   1283978
  1.203038e+00   3.966486e-02   1.244741e-03   3.644683e-05   1295498
  1.207344e+00   3.945725e-02   1.240214e-03   3.621407e-05   1300158
  1.211643e+00   3.954648e-02   1.241677e-03   3.606951e-05   1309064
  1.215945e+00   3.962147e-02   1.245586e-03   3.609465e-05   1322690
  1.220252e+00   3.953995e-02   1.242364e-03   3.593955e-05   1328658
  1.224558e+00   3.952183e-02   1.246335e-03   3.577620e-05   1342238
  1.228869e+00   3.945165e-02   1.243416e-03   3.559190e-05   1349490
  1.233166e+00   3.952731e-02   1.237892e-03   3.562345e-05   1353506
  1.237466e+00   3.944165e-02   1.242952e-03   3.538190e-05   1369106
  1.241772e+00   3.955100e-02   1.242177e-03   3.542598e-05   1377582
