# Matter power spectrum P(k) at redshift z=100
# for k=1.02819e-05 to 5.00333 h/Mpc,
# number of wavenumbers equal to 1940
#    1:k (h/Mpc)              2:P (Mpc/h)^3        
       1.028185622909e-05       5.897628933079e-03 
       1.034121403287e-05       5.931676335524e-03 
       1.040091451300e-05       5.965920275651e-03 
       1.046095964776e-05       6.000361878270e-03 
       1.052135142686e-05       6.035002336877e-03 
       1.058209185151e-05       6.069842775075e-03 
       1.064318293446e-05       6.104883807790e-03 
       1.070462670008e-05       6.140127661031e-03 
       1.076642518443e-05       6.175574976681e-03 
       1.082858043532e-05       6.211226929946e-03 
       1.089109451240e-05       6.247084708059e-03 
       1.095396948718e-05       6.283149487840e-03 
       1.101720744314e-05       6.319422474689e-03 
       1.108081047582e-05       6.355904866130e-03 
       1.114478069280e-05       6.392597336731e-03 
       1.120912021388e-05       6.429502170142e-03 
       1.127383117107e-05       6.466620054923e-03 
       1.133891570869e-05       6.503952228588e-03 
       1.140437598345e-05       6.541499920633e-03 
       1.147021416450e-05       6.579265576385e-03 
       1.153643243351e-05       6.617248042995e-03 
       1.160303298477e-05       6.655448607664e-03 
       1.167001802520e-05       6.693870882964e-03 
       1.173738977449e-05       6.732514969962e-03 
       1.180515046514e-05       6.771382155024e-03 
       1.187330234252e-05       6.810473717321e-03 
       1.194184766498e-05       6.849790960721e-03 
       1.201078870391e-05       6.889335185623e-03 
       1.208012774379e-05       6.929107697761e-03 
       1.214986708233e-05       6.969109818542e-03 
       1.222000903046e-05       7.009342875907e-03 
       1.229055591247e-05       7.049808198603e-03 
       1.236151006608e-05       7.090507051873e-03 
       1.243287384249e-05       7.131440933248e-03 
       1.250464960647e-05       7.172611133930e-03 
       1.257683973647e-05       7.214019011774e-03 
       1.264944662463e-05       7.255665939356e-03 
       1.272247267693e-05       7.297553291742e-03 
       1.279592031323e-05       7.339682461848e-03 
       1.286979196736e-05       7.382054845435e-03 
       1.294409008721e-05       7.424671850566e-03 
       1.301881713479e-05       7.467534884542e-03 
       1.309397558631e-05       7.510645366164e-03 
       1.316956793232e-05       7.554004729675e-03 
       1.324559667769e-05       7.597614406546e-03 
       1.332206434181e-05       7.641475840951e-03 
       1.339897345857e-05       7.685590489820e-03 
       1.347632657650e-05       7.729959818069e-03 
       1.355412625886e-05       7.774585299205e-03 
       1.363237508369e-05       7.819469936139e-03 
       1.371107564391e-05       7.864610619889e-03 
       1.379023054742e-05       7.910014960936e-03 
       1.386984241718e-05       7.955679884946e-03 
       1.394991389128e-05       8.001608436098e-03 
       1.403044762304e-05       8.047800669486e-03 
       1.411144628111e-05       8.094261062903e-03 
       1.419291254954e-05       8.140989669240e-03 
       1.427484912787e-05       8.187988038672e-03 
       1.435725873122e-05       8.235259140544e-03 
       1.444014409041e-05       8.282801710672e-03 
       1.452350795200e-05       8.330618746127e-03 
       1.460735307841e-05       8.378711827334e-03 
       1.469168224802e-05       8.427082550487e-03 
       1.477649825524e-05       8.475732519561e-03 
       1.486180391061e-05       8.524663346624e-03 
       1.494760204091e-05       8.573875292880e-03 
       1.503389548922e-05       8.623374060764e-03 
       1.512068711504e-05       8.673157226761e-03 
       1.520797979438e-05       8.723227792344e-03 
       1.529577641986e-05       8.773587418518e-03 
       1.538407990080e-05       8.824237775883e-03 
       1.547289316329e-05       8.875180533759e-03 
       1.556221915034e-05       8.926417384261e-03 
       1.565206082194e-05       8.977950024358e-03 
       1.574242115517e-05       9.029780163930e-03 
       1.583330314430e-05       9.081909521994e-03 
       1.592470980088e-05       9.134339820692e-03 
       1.601664415384e-05       9.187072806862e-03 
       1.610910924962e-05       9.240110242174e-03 
       1.620210815222e-05       9.293453808156e-03 
       1.629564394334e-05       9.347105315012e-03 
       1.638971972248e-05       9.401066600921e-03 
       1.648433860702e-05       9.455339425666e-03 
       1.657950373234e-05       9.509925545928e-03 
       1.667521825193e-05       9.564826811548e-03 
       1.677148533746e-05       9.620045002038e-03 
       1.686830817895e-05       9.675581978163e-03 
       1.696568998480e-05       9.731439563029e-03 
       1.706363398195e-05       9.787619620581e-03 
       1.716214341596e-05       9.844123968681e-03 
       1.726122155115e-05       9.900954552701e-03 
       1.736087167065e-05       9.958113231579e-03 
       1.746109707657e-05       1.001560187705e-02 
       1.756190109007e-05       1.007342240577e-02 
       1.766328705150e-05       1.013157673427e-02 
       1.776525832046e-05       1.019006678789e-02 
       1.786781827599e-05       1.024889450377e-02 
       1.797097031660e-05       1.030806183230e-02 
       1.807471786044e-05       1.036757077930e-02 
       1.817906434539e-05       1.042742321755e-02 
       1.828401322917e-05       1.048762118198e-02 
       1.838956798946e-05       1.054816668198e-02 
       1.849573212404e-05       1.060906168086e-02 
       1.860250915086e-05       1.067030826171e-02 
       1.870990260817e-05       1.073190841201e-02 
       1.881791605469e-05       1.079386417966e-02 
       1.892655306963e-05       1.085617761941e-02 
       1.903581725291e-05       1.091885079732e-02 
       1.914571222520e-05       1.098188579467e-02 
       1.925624162809e-05       1.104528468478e-02 
       1.936740912418e-05       1.110904960984e-02 
       1.947921839724e-05       1.117318258859e-02 
       1.959167315227e-05       1.123768584000e-02 
       1.970477711569e-05       1.130256147135e-02 
       1.981853403541e-05       1.136781162345e-02 
       1.993294768100e-05       1.143343846527e-02 
       2.004802184377e-05       1.149944416884e-02 
       2.016376033694e-05       1.156583092394e-02 
       2.028016699571e-05       1.163260092994e-02 
       2.039724567747e-05       1.169975639782e-02 
       2.051500026182e-05       1.176729955238e-02 
       2.063343465082e-05       1.183523263188e-02 
       2.075255276900e-05       1.190355788774e-02 
       2.087235856358e-05       1.197227758574e-02 
       2.099285600456e-05       1.204139400921e-02 
       2.111404908486e-05       1.211090944300e-02 
       2.123594182045e-05       1.218082619338e-02 
       2.135853825048e-05       1.225114658027e-02 
       2.148184243743e-05       1.232187300909e-02 
       2.160585846721e-05       1.239300764613e-02 
       2.173059044935e-05       1.246455294277e-02 
       2.185604251708e-05       1.253651127311e-02 
       2.198221882750e-05       1.260888488597e-02 
       2.210912356171e-05       1.268167642166e-02 
       2.223676092494e-05       1.275488818478e-02 
       2.236513514672e-05       1.282852260364e-02 
       2.249425048096e-05       1.290258210788e-02 
       2.262411120617e-05       1.297706914522e-02 
       2.275472162552e-05       1.305198620783e-02 
       2.288608606705e-05       1.312733578322e-02 
       2.301820888378e-05       1.320312032941e-02 
       2.315109445385e-05       1.327934237795e-02 
       2.328474718069e-05       1.335600441798e-02 
       2.341917149315e-05       1.343310906111e-02 
       2.355437184562e-05       1.351065883675e-02 
       2.369035271825e-05       1.358865629719e-02 
       2.382711861703e-05       1.366710445850e-02 
       2.396467407396e-05       1.374600507016e-02 
       2.410302364720e-05       1.382536117819e-02 
       2.424217192125e-05       1.390517541187e-02 
       2.438212350705e-05       1.398545040293e-02 
       2.452288304217e-05       1.406618882053e-02 
       2.466445519096e-05       1.414739333467e-02 
       2.480684464468e-05       1.422906663972e-02 
       2.495005612169e-05       1.431121144370e-02 
       2.509409436758e-05       1.439383046911e-02 
       2.523896415533e-05       1.447692645189e-02 
       2.538467028550e-05       1.456050214321e-02 
       2.553121758633e-05       1.464456031160e-02 
       2.567861091397e-05       1.472910374837e-02 
       2.582685515258e-05       1.481413525358e-02 
       2.597595521451e-05       1.489965762800e-02 
       2.612591604049e-05       1.498567327951e-02 
       2.627674259977e-05       1.507218593737e-02 
       2.642843989028e-05       1.515919803400e-02 
       2.658101293880e-05       1.524671244469e-02 
       2.673446680115e-05       1.533473207654e-02 
       2.688880656231e-05       1.542325982424e-02 
       2.704403733664e-05       1.551229863726e-02 
       2.720016426800e-05       1.560185146595e-02 
       2.735719252998e-05       1.569192127413e-02 
       2.751512732601e-05       1.578251105251e-02 
       2.767397388956e-05       1.587362371158e-02 
       2.783373748433e-05       1.596526244583e-02 
       2.799442340440e-05       1.605743020430e-02 
       2.815603697441e-05       1.615013004110e-02 
       2.831858354975e-05       1.624336502714e-02 
       2.848206851670e-05       1.633713825190e-02 
       2.864649729267e-05       1.643145282244e-02 
       2.881187532632e-05       1.652631186373e-02 
       2.897820809777e-05       1.662171851881e-02 
       2.914550111880e-05       1.671767594669e-02 
       2.931375993298e-05       1.681418742554e-02 
       2.948299011589e-05       1.691125586883e-02 
       2.965319727530e-05       1.700888477342e-02 
       2.982438705138e-05       1.710707728136e-02 
       2.999656511681e-05       1.720583664605e-02 
       3.016973717707e-05       1.730516613967e-02 
       3.034390897054e-05       1.740506905210e-02 
       3.051908626874e-05       1.750554869596e-02 
       3.069527487653e-05       1.760660839912e-02 
       3.087248063225e-05       1.770825151003e-02 
       3.105070940796e-05       1.781048139789e-02 
       3.122996710962e-05       1.791330144732e-02 
       3.141025967728e-05       1.801671506646e-02 
       3.159159308530e-05       1.812072568145e-02 
       3.177397334251e-05       1.822533673851e-02 
       3.195740649243e-05       1.833055170374e-02 
       3.214189861348e-05       1.843637416541e-02 
       3.232745581917e-05       1.854280742572e-02 
       3.251408425830e-05       1.864985511295e-02 
       3.270179011517e-05       1.875752077391e-02 
       3.289057960978e-05       1.886580797587e-02 
       3.308045899803e-05       1.897472030667e-02 
       3.327143457195e-05       1.908426137087e-02 
       3.346351265989e-05       1.919443480570e-02 
       3.365669962674e-05       1.930524425765e-02 
       3.385100187411e-05       1.941669339771e-02 
       3.404642584060e-05       1.952878591927e-02 
       3.424297800196e-05       1.964152553587e-02 
       3.444066487134e-05       1.975491598287e-02 
       3.463949299946e-05       1.986896102293e-02 
       3.483946897490e-05       1.998366442424e-02 
       3.504059942423e-05       2.009902999430e-02 
       3.524289101233e-05       2.021506155608e-02 
       3.544635044251e-05       2.033176295266e-02 
       3.565098445679e-05       2.044913804903e-02 
       3.585679983614e-05       2.056719058202e-02 
       3.606380340063e-05       2.068592458420e-02 
       3.627200200974e-05       2.080534435912e-02 
       3.648140256255e-05       2.092545335683e-02 
       3.669201199793e-05       2.104625572466e-02 
       3.690383729486e-05       2.116775546481e-02 
       3.711688547257e-05       2.128995643394e-02 
       3.733116359083e-05       2.141286318898e-02 
       3.754667875016e-05       2.153647928972e-02 
       3.776343809210e-05       2.166080900469e-02 
       3.798144879936e-05       2.178585645061e-02 
       3.820071809618e-05       2.191162623806e-02 
       3.842125324846e-05       2.203812162524e-02 
       3.864306156407e-05       2.216534724914e-02 
       3.886615039306e-05       2.229330731980e-02 
       3.909052712791e-05       2.242200605213e-02 
       3.931619920379e-05       2.255144772730e-02 
       3.954317409879e-05       2.268163663192e-02 
       3.977145933415e-05       2.281257647537e-02 
       4.000106247455e-05       2.294427286561e-02 
       4.023199112836e-05       2.307672949942e-02 
       4.046425294783e-05       2.320995078372e-02 
       4.069785562941e-05       2.334394111631e-02 
       4.093280691400e-05       2.347870495884e-02 
       4.116911458715e-05       2.361424671620e-02 
       4.140678647939e-05       2.375057146551e-02 
       4.164583046643e-05       2.388768266322e-02 
       4.188625446947e-05       2.402558536170e-02 
       4.212806645543e-05       2.416428415148e-02 
       4.237127443722e-05       2.430378359920e-02 
       4.261588647401e-05       2.444408837291e-02 
       4.286191067150e-05       2.458520258885e-02 
       4.310935518218e-05       2.472713193773e-02 
       4.335822820561e-05       2.486988036902e-02 
       4.360853798869e-05       2.501345336750e-02 
       4.386029282591e-05       2.515785490489e-02 
       4.411350105967e-05       2.530309003538e-02 
       4.436817108051e-05       2.544916355847e-02 
       4.462431132743e-05       2.559608034001e-02 
       4.488193028814e-05       2.574384524470e-02 
       4.514103649933e-05       2.589246315355e-02 
       4.540163854700e-05       2.604193899464e-02 
       4.566374506672e-05       2.619227772888e-02 
       4.592736474388e-05       2.634348431578e-02 
       4.619250631405e-05       2.649556373884e-02 
       4.645917856321e-05       2.664852104948e-02 
       4.672739032807e-05       2.680236135062e-02 
       4.699715049634e-05       2.695708974007e-02 
       4.726846800705e-05       2.711271131093e-02 
       4.754135185086e-05       2.726923122354e-02 
       4.781581107028e-05       2.742665469020e-02 
       4.809185476007e-05       2.758498692208e-02 
       4.836949206747e-05       2.774423313963e-02 
       4.864873219253e-05       2.790439863410e-02 
       4.892958438844e-05       2.806548869797e-02 
       4.921205796176e-05       2.822750923352e-02 
       4.949616227282e-05       2.839046357280e-02 
       4.978190673596e-05       2.855435954842e-02 
       5.006930081990e-05       2.871920162911e-02 
       5.035835404798e-05       2.888499530476e-02 
       5.064907599857e-05       2.905174606362e-02 
       5.094147630528e-05       2.921945914389e-02 
       5.123556465740e-05       2.938814080826e-02 
       5.153135080009e-05       2.955779601117e-02 
       5.182884453483e-05       2.972843058391e-02 
       5.212805571963e-05       2.990005016059e-02 
       5.242899426946e-05       3.007266045018e-02 
       5.273167015650e-05       3.024626716317e-02 
       5.303609341050e-05       3.042087604047e-02 
       5.334227411912e-05       3.059649278076e-02 
       5.365022242827e-05       3.077312300753e-02 
       5.395994854240e-05       3.095077353533e-02 
       5.427146272491e-05       3.112944868178e-02 
       5.458477529842e-05       3.130915576365e-02 
       5.489989664515e-05       3.148990036016e-02 
       5.521683720727e-05       3.167168807748e-02 
       5.553560748723e-05       3.185452514357e-02 
       5.585621804809e-05       3.203841786518e-02 
       5.617867951392e-05       3.222337183631e-02 
       5.650300257011e-05       3.240939356167e-02 
       5.682919796373e-05       3.259648904959e-02 
       5.715727650392e-05       3.278466479358e-02 
       5.748724906218e-05       3.297392654892e-02 
       5.781912657281e-05       3.316428085260e-02 
       5.815292003322e-05       3.335573399334e-02 
       5.848864050431e-05       3.354829228823e-02 
       5.882629911083e-05       3.374196207985e-02 
       5.916590704175e-05       3.393674965826e-02 
       5.950747555066e-05       3.413266197548e-02 
       5.985101595609e-05       3.432970510268e-02 
       6.019653964192e-05       3.452788511162e-02 
       6.054405805776e-05       3.472721016663e-02 
       6.089358271931e-05       3.492768504148e-02 
       6.124512520875e-05       3.512931770174e-02 
       6.159869717513e-05       3.533211392088e-02 
       6.195431033475e-05       3.553608096873e-02 
       6.231197647154e-05       3.574122517323e-02 
       6.267170743747e-05       3.594755360451e-02 
       6.303351515293e-05       3.615507287451e-02 
       6.339741160713e-05       3.636379014230e-02 
       6.376340885849e-05       3.657371216829e-02 
       6.413151903503e-05       3.678484598228e-02 
       6.450175433482e-05       3.699719853842e-02 
       6.487412702632e-05       3.721077687449e-02 
       6.524864944882e-05       3.742558805646e-02 
       6.562533401287e-05       3.764163918387e-02 
       6.600419320064e-05       3.785893747456e-02 
       6.638523956636e-05       3.807748952641e-02 
       6.676848573676e-05       3.829730369525e-02 
       6.715394441145e-05       3.851838670417e-02 
       6.754162836336e-05       3.874074586089e-02 
       6.793155043914e-05       3.896438850171e-02 
       6.832372355963e-05       3.918932206920e-02 
       6.871816072025e-05       3.941555403542e-02 
       6.911487499145e-05       3.964309187397e-02 
       6.951387951914e-05       3.987194391978e-02 
       6.991518752510e-05       4.010211436850e-02 
       7.031881230746e-05       4.033361674944e-02 
       7.072476724111e-05       4.056645376262e-02 
       7.113306577818e-05       4.080063486155e-02 
       7.154372144843e-05       4.103616771364e-02 
       7.195674785973e-05       4.127305988221e-02 
       7.237215869852e-05       4.151131960579e-02 
       7.278996773026e-05       4.175095461142e-02 
       7.321018879986e-05       4.199197283881e-02 
       7.363283583217e-05       4.223438224518e-02 
       7.405792283243e-05       4.247819085764e-02 
       7.448546388672e-05       4.272340680413e-02 
       7.491547316245e-05       4.297003816174e-02 
       7.534796490882e-05       4.321809306267e-02 
       7.578295345729e-05       4.346757978034e-02 
       7.622045322206e-05       4.371850657494e-02 
       7.666047870053e-05       4.397088170443e-02 
       7.710304447381e-05       4.422471363505e-02 
       7.754816520718e-05       4.448001027952e-02 
       7.799585565059e-05       4.473678085876e-02 
       7.844613063914e-05       4.499503355674e-02 
       7.889900509356e-05       4.525477693321e-02 
       7.935449402074e-05       4.551601949809e-02 
       7.981261251419e-05       4.577876967394e-02 
       8.027337575457e-05       4.604303650321e-02 
       8.073679901017e-05       4.630882885463e-02 
       8.120289763741e-05       4.657615562028e-02 
       8.167168708139e-05       4.684502507409e-02 
       8.214318287637e-05       4.711544684197e-02 
       8.261740064628e-05       4.738742910671e-02 
       8.309435610525e-05       4.766098122084e-02 
       8.357406505814e-05       4.793611223859e-02 
       8.405654340103e-05       4.821283138510e-02 
       8.454180712179e-05       4.849114759597e-02 
       8.502987230059e-05       4.877107022367e-02 
       8.552075511041e-05       4.905260847675e-02 
       8.601447181762e-05       4.933577172742e-02 
       8.651103878248e-05       4.962056935348e-02 
       8.701047245972e-05       4.990701077820e-02 
       8.751278939904e-05       5.019510546693e-02 
       8.801800624570e-05       5.048486305572e-02 
       8.852613974104e-05       5.077629294512e-02 
       8.903720672307e-05       5.106940487377e-02 
       8.955122412698e-05       5.136420856742e-02 
       9.006820898575e-05       5.166071380206e-02 
       9.058817843067e-05       5.195893035668e-02 
       9.111114969197e-05       5.225886811247e-02 
       9.163714009930e-05       5.256053699084e-02 
