# background statistics
# cycle   tau/boxsize    a             conformal H/H0  phi(k=0)       T00(k=0)
      0   6.427024e-01   9.900990e-03   5.696668e+00   0.000000e+00   3.120460e-01
      1   6.577384e-01   1.030088e-02   5.581878e+00   5.935104e-10   3.120460e-01
      2   6.730836e-01   1.071692e-02   5.469515e+00   1.100110e-09   3.120460e-01
      3   6.887440e-01   1.114977e-02   5.359523e+00   1.567853e-09   3.120460e-01
      4   7.047258e-01   1.160010e-02   5.251844e+00   2.002547e-09   3.120460e-01
      5   7.210353e-01   1.206863e-02   5.146426e+00   2.407913e-09   3.120460e-01
      6   7.376789e-01   1.255609e-02   5.043215e+00   2.787217e-09   3.120460e-01
      7   7.546631e-01   1.306324e-02   4.942160e+00   3.143403e-09   3.120460e-01
      8   7.719946e-01   1.359088e-02   4.843211e+00   3.479139e-09   3.120460e-01
      9   7.896802e-01   1.413984e-02   4.746320e+00   3.796848e-09   3.120460e-01
     10   8.077268e-01   1.471097e-02   4.651440e+00   4.098734e-09   3.120460e-01
     11   8.261415e-01   1.530518e-02   4.558526e+00   4.386809e-09   3.120460e-01
     12   8.449316e-01   1.592340e-02   4.467532e+00   4.662908e-09   3.120460e-01
     13   8.641044e-01   1.656659e-02   4.378415e+00   4.928710e-09   3.120460e-01
     14   8.836674e-01   1.723576e-02   4.291134e+00   5.185752e-09   3.120460e-01
     15   9.036283e-01   1.793197e-02   4.205648e+00   5.435445e-09   3.120460e-01
     16   9.239949e-01   1.865631e-02   4.121916e+00   5.679089e-09   3.120460e-01
     17   9.447753e-01   1.940991e-02   4.039901e+00   5.917877e-09   3.120460e-01
     18   9.659776e-01   2.019396e-02   3.959563e+00   6.152916e-09   3.120460e-01
     19   9.876100e-01   2.100968e-02   3.880868e+00   6.385227e-09   3.120460e-01
     20   1.009681e+00   2.185835e-02   3.803777e+00   6.615762e-09   3.120460e-01
     21   1.032200e+00   2.274132e-02   3.728258e+00   6.845404e-09   3.120460e-01
     22   1.055174e+00   2.365995e-02   3.654275e+00   7.074982e-09   3.120460e-01
     23   1.078614e+00   2.461570e-02   3.581796e+00   7.305270e-09   3.120460e-01
     24   1.102528e+00   2.561006e-02   3.510788e+00   7.536998e-09   3.120460e-01
     25   1.126925e+00   2.664460e-02   3.441220e+00   7.770856e-09   3.120460e-01
     26   1.151816e+00   2.772092e-02   3.373061e+00   8.007499e-09   3.120460e-01
     27   1.177210e+00   2.884074e-02   3.306281e+00   8.247549e-09   3.120460e-01
     28   1.203117e+00   3.000579e-02   3.240851e+00   8.491605e-09   3.120459e-01
     29   1.229547e+00   3.121792e-02   3.176743e+00   8.740238e-09   3.120459e-01
     30   1.256510e+00   3.247901e-02   3.113928e+00   8.994005e-09   3.120459e-01
     31   1.284017e+00   3.379105e-02   3.052381e+00   9.253441e-09   3.120459e-01
     32   1.312079e+00   3.515610e-02   2.992073e+00   9.519071e-09   3.120459e-01
     33   1.340706e+00   3.657630e-02   2.932981e+00   9.791408e-09   3.120459e-01
     34   1.369910e+00   3.805388e-02   2.875077e+00   1.007096e-08   3.120459e-01
     35   1.399702e+00   3.959116e-02   2.818339e+00   1.035821e-08   3.120459e-01
     36   1.430094e+00   4.119054e-02   2.762742e+00   1.065367e-08   3.120459e-01
     37   1.461098e+00   4.285454e-02   2.708262e+00   1.095782e-08   3.120459e-01
     38   1.492725e+00   4.458577e-02   2.654877e+00   1.127115e-08   3.120459e-01
     39   1.524988e+00   4.638694e-02   2.602565e+00   1.159416e-08   3.120459e-01
     40   1.557900e+00   4.826089e-02   2.551304e+00   1.192734e-08   3.120459e-01
# background statistics
# cycle   tau/boxsize    a             conformal H/H0  phi(k=0)       T00(k=0)
      0   6.427024e-01   9.900990e-03   5.696668e+00   0.000000e+00   3.120460e-01
      1   6.577384e-01   1.030088e-02   5.581878e+00   5.935104e-10   3.120460e-01
      2   6.730836e-01   1.071692e-02   5.469515e+00   1.100110e-09   3.120460e-01
      3   6.887440e-01   1.114977e-02   5.359523e+00   1.567853e-09   3.120460e-01
      4   7.047258e-01   1.160010e-02   5.251844e+00   2.002547e-09   3.120460e-01
      5   7.210353e-01   1.206863e-02   5.146426e+00   2.407913e-09   3.120460e-01
      6   7.376789e-01   1.255609e-02   5.043215e+00   2.787217e-09   3.120460e-01
      7   7.546631e-01   1.306324e-02   4.942160e+00   3.143403e-09   3.120460e-01
      8   7.719946e-01   1.359088e-02   4.843211e+00   3.479139e-09   3.120460e-01
      9   7.896802e-01   1.413984e-02   4.746320e+00   3.796848e-09   3.120460e-01
     10   8.077268e-01   1.471097e-02   4.651440e+00   4.098734e-09   3.120460e-01
     11   8.261415e-01   1.530518e-02   4.558526e+00   4.386809e-09   3.120460e-01
     12   8.449316e-01   1.592340e-02   4.467532e+00   4.662908e-09   3.120460e-01
     13   8.641044e-01   1.656659e-02   4.378415e+00   4.928710e-09   3.120460e-01
     14   8.836674e-01   1.723576e-02   4.291134e+00   5.185752e-09   3.120460e-01
     15   9.036283e-01   1.793197e-02   4.205648e+00   5.435445e-09   3.120460e-01
     16   9.239949e-01   1.865631e-02   4.121916e+00   5.679089e-09   3.120460e-01
     17   9.447753e-01   1.940991e-02   4.039901e+00   5.917877e-09   3.120460e-01
     18   9.659776e-01   2.019396e-02   3.959563e+00   6.152916e-09   3.120460e-01
     19   9.876100e-01   2.100968e-02   3.880868e+00   6.385227e-09   3.120460e-01
     20   1.009681e+00   2.185835e-02   3.803777e+00   6.615762e-09   3.120460e-01
     21   1.032200e+00   2.274132e-02   3.728258e+00   6.845404e-09   3.120460e-01
     22   1.055174e+00   2.365995e-02   3.654275e+00   7.074982e-09   3.120460e-01
     23   1.078614e+00   2.461570e-02   3.581796e+00   7.305270e-09   3.120460e-01
     24   1.102528e+00   2.561006e-02   3.510788e+00   7.536998e-09   3.120460e-01
     25   1.126925e+00   2.664460e-02   3.441220e+00   7.770856e-09   3.120460e-01
     26   1.151816e+00   2.772092e-02   3.373061e+00   8.007499e-09   3.120460e-01
     27   1.177210e+00   2.884074e-02   3.306281e+00   8.247549e-09   3.120460e-01
     28   1.203117e+00   3.000579e-02   3.240851e+00   8.491605e-09   3.120459e-01
     29   1.229547e+00   3.121792e-02   3.176743e+00   8.740238e-09   3.120459e-01
     30   1.256510e+00   3.247901e-02   3.113928e+00   8.994005e-09   3.120459e-01
     31   1.284017e+00   3.379105e-02   3.052381e+00   9.253441e-09   3.120459e-01
     32   1.312079e+00   3.515610e-02   2.992073e+00   9.519071e-09   3.120459e-01
     33   1.340706e+00   3.657630e-02   2.932981e+00   9.791408e-09   3.120459e-01
     34   1.369910e+00   3.805388e-02   2.875077e+00   1.007096e-08   3.120459e-01
     35   1.399702e+00   3.959116e-02   2.818339e+00   1.035821e-08   3.120459e-01
     36   1.430094e+00   4.119054e-02   2.762742e+00   1.065367e-08   3.120459e-01
     37   1.461098e+00   4.285454e-02   2.708262e+00   1.095782e-08   3.120459e-01
     38   1.492725e+00   4.458577e-02   2.654877e+00   1.127115e-08   3.120459e-01
     39   1.524988e+00   4.638694e-02   2.602565e+00   1.159416e-08   3.120459e-01
     40   1.557900e+00   4.826089e-02   2.551304e+00   1.192734e-08   3.120459e-01
# background statistics
# cycle   tau/boxsize    a             conformal H/H0  phi(k=0)       T00(k=0)
      0   6.427024e-01   9.900990e-03   5.696668e+00   0.000000e+00   3.120460e-01
      1   6.577384e-01   1.030088e-02   5.581878e+00   5.935104e-10   3.120460e-01
      2   6.730836e-01   1.071692e-02   5.469515e+00   1.100110e-09   3.120460e-01
      3   6.887440e-01   1.114977e-02   5.359523e+00   1.567853e-09   3.120460e-01
      4   7.047258e-01   1.160010e-02   5.251844e+00   2.002547e-09   3.120460e-01
      5   7.210353e-01   1.206863e-02   5.146426e+00   2.407913e-09   3.120460e-01
      6   7.376789e-01   1.255609e-02   5.043215e+00   2.787217e-09   3.120460e-01
      7   7.546631e-01   1.306324e-02   4.942160e+00   3.143403e-09   3.120460e-01
      8   7.719946e-01   1.359088e-02   4.843211e+00   3.479139e-09   3.120460e-01
      9   7.896802e-01   1.413984e-02   4.746320e+00   3.796848e-09   3.120460e-01
     10   8.077268e-01   1.471097e-02   4.651440e+00   4.098734e-09   3.120460e-01
     11   8.261415e-01   1.530518e-02   4.558526e+00   4.386809e-09   3.120460e-01
     12   8.449316e-01   1.592340e-02   4.467532e+00   4.662908e-09   3.120460e-01
     13   8.641044e-01   1.656659e-02   4.378415e+00   4.928710e-09   3.120460e-01
     14   8.836674e-01   1.723576e-02   4.291134e+00   5.185752e-09   3.120460e-01
     15   9.036283e-01   1.793197e-02   4.205648e+00   5.435445e-09   3.120460e-01
     16   9.239949e-01   1.865631e-02   4.121916e+00   5.679089e-09   3.120460e-01
     17   9.447753e-01   1.940991e-02   4.039901e+00   5.917877e-09   3.120460e-01
     18   9.659776e-01   2.019396e-02   3.959563e+00   6.152916e-09   3.120460e-01
     19   9.876100e-01   2.100968e-02   3.880868e+00   6.385227e-09   3.120460e-01
     20   1.009681e+00   2.185835e-02   3.803777e+00   6.615762e-09   3.120460e-01
     21   1.032200e+00   2.274132e-02   3.728258e+00   6.845404e-09   3.120460e-01
     22   1.055174e+00   2.365995e-02   3.654275e+00   7.074982e-09   3.120460e-01
     23   1.078614e+00   2.461570e-02   3.581796e+00   7.305270e-09   3.120460e-01
     24   1.102528e+00   2.561006e-02   3.510788e+00   7.536998e-09   3.120460e-01
     25   1.126925e+00   2.664460e-02   3.441220e+00   7.770856e-09   3.120460e-01
     26   1.151816e+00   2.772092e-02   3.373061e+00   8.007499e-09   3.120460e-01
     27   1.177210e+00   2.884074e-02   3.306281e+00   8.247549e-09   3.120460e-01
     28   1.203117e+00   3.000579e-02   3.240851e+00   8.491605e-09   3.120459e-01
     29   1.229547e+00   3.121792e-02   3.176743e+00   8.740238e-09   3.120459e-01
     30   1.256510e+00   3.247901e-02   3.113928e+00   8.994005e-09   3.120459e-01
     31   1.284017e+00   3.379105e-02   3.052381e+00   9.253441e-09   3.120459e-01
     32   1.312079e+00   3.515610e-02   2.992073e+00   9.519071e-09   3.120459e-01
     33   1.340706e+00   3.657630e-02   2.932981e+00   9.791408e-09   3.120459e-01
     34   1.369910e+00   3.805388e-02   2.875077e+00   1.007096e-08   3.120459e-01
     35   1.399702e+00   3.959116e-02   2.818339e+00   1.035821e-08   3.120459e-01
     36   1.430094e+00   4.119054e-02   2.762742e+00   1.065367e-08   3.120459e-01
     37   1.461098e+00   4.285454e-02   2.708262e+00   1.095782e-08   3.120459e-01
     38   1.492725e+00   4.458577e-02   2.654877e+00   1.127115e-08   3.120459e-01
     39   1.524988e+00   4.638694e-02   2.602565e+00   1.159416e-08   3.120459e-01
     40   1.557900e+00   4.826089e-02   2.551304e+00   1.192734e-08   3.120459e-01
# background statistics
# cycle   tau/boxsize    a             conformal H/H0  phi(k=0)       T00(k=0)
      0   6.427024e-01   9.900990e-03   5.696668e+00   0.000000e+00   3.120460e-01
      1   6.577384e-01   1.030088e-02   5.581878e+00   5.935104e-10   3.120460e-01
      2   6.730836e-01   1.071692e-02   5.469515e+00   1.100110e-09   3.120460e-01
      3   6.887440e-01   1.114977e-02   5.359523e+00   1.567853e-09   3.120460e-01
      4   7.047258e-01   1.160010e-02   5.251844e+00   2.002547e-09   3.120460e-01
      5   7.210353e-01   1.206863e-02   5.146426e+00   2.407913e-09   3.120460e-01
      6   7.376789e-01   1.255609e-02   5.043215e+00   2.787217e-09   3.120460e-01
      7   7.546631e-01   1.306324e-02   4.942160e+00   3.143403e-09   3.120460e-01
      8   7.719946e-01   1.359088e-02   4.843211e+00   3.479139e-09   3.120460e-01
      9   7.896802e-01   1.413984e-02   4.746320e+00   3.796848e-09   3.120460e-01
     10   8.077268e-01   1.471097e-02   4.651440e+00   4.098734e-09   3.120460e-01
     11   8.261415e-01   1.530518e-02   4.558526e+00   4.386809e-09   3.120460e-01
     12   8.449316e-01   1.592340e-02   4.467532e+00   4.662908e-09   3.120460e-01
     13   8.641044e-01   1.656659e-02   4.378415e+00   4.928710e-09   3.120460e-01
     14   8.836674e-01   1.723576e-02   4.291134e+00   5.185752e-09   3.120460e-01
     15   9.036283e-01   1.793197e-02   4.205648e+00   5.435445e-09   3.120460e-01
     16   9.239949e-01   1.865631e-02   4.121916e+00   5.679089e-09   3.120460e-01
     17   9.447753e-01   1.940991e-02   4.039901e+00   5.917877e-09   3.120460e-01
     18   9.659776e-01   2.019396e-02   3.959563e+00   6.152916e-09   3.120460e-01
     19   9.876100e-01   2.100968e-02   3.880868e+00   6.385227e-09   3.120460e-01
     20   1.009681e+00   2.185835e-02   3.803777e+00   6.615762e-09   3.120460e-01
     21   1.032200e+00   2.274132e-02   3.728258e+00   6.845404e-09   3.120460e-01
     22   1.055174e+00   2.365995e-02   3.654275e+00   7.074982e-09   3.120460e-01
     23   1.078614e+00   2.461570e-02   3.581796e+00   7.305270e-09   3.120460e-01
     24   1.102528e+00   2.561006e-02   3.510788e+00   7.536998e-09   3.120460e-01
     25   1.126925e+00   2.664460e-02   3.441220e+00   7.770856e-09   3.120460e-01
     26   1.151816e+00   2.772092e-02   3.373061e+00   8.007499e-09   3.120460e-01
     27   1.177210e+00   2.884074e-02   3.306281e+00   8.247549e-09   3.120460e-01
     28   1.203117e+00   3.000579e-02   3.240851e+00   8.491605e-09   3.120459e-01
     29   1.229547e+00   3.121792e-02   3.176743e+00   8.740238e-09   3.120459e-01
     30   1.256510e+00   3.247901e-02   3.113928e+00   8.994005e-09   3.120459e-01
     31   1.284017e+00   3.379105e-02   3.052381e+00   9.253441e-09   3.120459e-01
     32   1.312079e+00   3.515610e-02   2.992073e+00   9.519071e-09   3.120459e-01
     33   1.340706e+00   3.657630e-02   2.932981e+00   9.791408e-09   3.120459e-01
     34   1.369910e+00   3.805388e-02   2.875077e+00   1.007096e-08   3.120459e-01
     35   1.399702e+00   3.959116e-02   2.818339e+00   1.035821e-08   3.120459e-01
     36   1.430094e+00   4.119054e-02   2.762742e+00   1.065367e-08   3.120459e-01
     37   1.461098e+00   4.285454e-02   2.708262e+00   1.095782e-08   3.120459e-01
     38   1.492725e+00   4.458577e-02   2.654877e+00   1.127115e-08   3.120459e-01
     39   1.524988e+00   4.638694e-02   2.602565e+00   1.159416e-08   3.120459e-01
     40   1.557900e+00   4.826089e-02   2.551304e+00   1.192734e-08   3.120459e-01
# background statistics
# cycle   tau/boxsize    a             conformal H/H0  phi(k=0)       T00(k=0)
      0   6.427024e-01   9.900990e-03   5.696668e+00   0.000000e+00   3.120460e-01
      1   6.577384e-01   1.030088e-02   5.581878e+00   5.935104e-10   3.120460e-01
      2   6.730836e-01   1.071692e-02   5.469515e+00   1.100110e-09   3.120460e-01
      3   6.887440e-01   1.114977e-02   5.359523e+00   1.567853e-09   3.120460e-01
      4   7.047258e-01   1.160010e-02   5.251844e+00   2.002547e-09   3.120460e-01
      5   7.210353e-01   1.206863e-02   5.146426e+00   2.407913e-09   3.120460e-01
      6   7.376789e-01   1.255609e-02   5.043215e+00   2.787217e-09   3.120460e-01
      7   7.546631e-01   1.306324e-02   4.942160e+00   3.143403e-09   3.120460e-01
      8   7.719946e-01   1.359088e-02   4.843211e+00   3.479139e-09   3.120460e-01
      9   7.896802e-01   1.413984e-02   4.746320e+00   3.796848e-09   3.120460e-01
     10   8.077268e-01   1.471097e-02   4.651440e+00   4.098734e-09   3.120460e-01
     11   8.261415e-01   1.530518e-02   4.558526e+00   4.386809e-09   3.120460e-01
     12   8.449316e-01   1.592340e-02   4.467532e+00   4.662908e-09   3.120460e-01
     13   8.641044e-01   1.656659e-02   4.378415e+00   4.928710e-09   3.120460e-01
     14   8.836674e-01   1.723576e-02   4.291134e+00   5.185752e-09   3.120460e-01
     15   9.036283e-01   1.793197e-02   4.205648e+00   5.435445e-09   3.120460e-01
     16   9.239949e-01   1.865631e-02   4.121916e+00   5.679089e-09   3.120460e-01
     17   9.447753e-01   1.940991e-02   4.039901e+00   5.917877e-09   3.120460e-01
     18   9.659776e-01   2.019396e-02   3.959563e+00   6.152916e-09   3.120460e-01
     19   9.876100e-01   2.100968e-02   3.880868e+00   6.385227e-09   3.120460e-01
     20   1.009681e+00   2.185835e-02   3.803777e+00   6.615762e-09   3.120460e-01
     21   1.032200e+00   2.274132e-02   3.728258e+00   6.845404e-09   3.120460e-01
     22   1.055174e+00   2.365995e-02   3.654275e+00   7.074982e-09   3.120460e-01
     23   1.078614e+00   2.461570e-02   3.581796e+00   7.305270e-09   3.120460e-01
     24   1.102528e+00   2.561006e-02   3.510788e+00   7.536998e-09   3.120460e-01
     25   1.126925e+00   2.664460e-02   3.441220e+00   7.770856e-09   3.120460e-01
     26   1.151816e+00   2.772092e-02   3.373061e+00   8.007499e-09   3.120460e-01
     27   1.177210e+00   2.884074e-02   3.306281e+00   8.247549e-09   3.120460e-01
     28   1.203117e+00   3.000579e-02   3.240851e+00   8.491605e-09   3.120459e-01
     29   1.229547e+00   3.121792e-02   3.176743e+00   8.740238e-09   3.120459e-01
     30   1.256510e+00   3.247901e-02   3.113928e+00   8.994005e-09   3.120459e-01
     31   1.284017e+00   3.379105e-02   3.052381e+00   9.253441e-09   3.120459e-01
     32   1.312079e+00   3.515610e-02   2.992073e+00   9.519071e-09   3.120459e-01
     33   1.340706e+00   3.657630e-02   2.932981e+00   9.791408e-09   3.120459e-01
     34   1.369910e+00   3.805388e-02   2.875077e+00   1.007096e-08   3.120459e-01
     35   1.399702e+00   3.959116e-02   2.818339e+00   1.035821e-08   3.120459e-01
     36   1.430094e+00   4.119054e-02   2.762742e+00   1.065367e-08   3.120459e-01
     37   1.461098e+00   4.285454e-02   2.708262e+00   1.095782e-08   3.120459e-01
     38   1.492725e+00   4.458577e-02   2.654877e+00   1.127115e-08   3.120459e-01
     39   1.524988e+00   4.638694e-02   2.602565e+00   1.159416e-08   3.120459e-01
     40   1.557900e+00   4.826089e-02   2.551304e+00   1.192734e-08   3.120459e-01
# background statistics
# cycle   tau/boxsize    a             conformal H/H0  phi(k=0)       T00(k=0)
      0   6.427024e-01   9.900990e-03   5.696668e+00   0.000000e+00   3.120460e-01
      1   6.442060e-01   9.940633e-03   5.684972e+00   5.733115e-11   3.120460e-01
      2   6.457127e-01   9.980434e-03   5.673300e+00   1.111991e-10   3.120460e-01
      3   6.472225e-01   1.002039e-02   5.661654e+00   1.637867e-10   3.120460e-01
      4   6.487354e-01   1.006051e-02   5.650033e+00   2.157065e-10   3.120460e-01
      5   6.502514e-01   1.010080e-02   5.638437e+00   2.671325e-10   3.120460e-01
      6   6.517705e-01   1.014124e-02   5.626866e+00   3.181211e-10   3.120460e-01
      7   6.532927e-01   1.018184e-02   5.615320e+00   3.686953e-10   3.120460e-01
      8   6.548181e-01   1.022261e-02   5.603799e+00   4.188670e-10   3.120460e-01
      9   6.563466e-01   1.026354e-02   5.592303e+00   4.686445e-10   3.120460e-01
     10   6.578783e-01   1.030463e-02   5.580832e+00   5.180342e-10   3.120460e-01
     11   6.594131e-01   1.034589e-02   5.569385e+00   5.670418e-10   3.120460e-01
     12   6.609511e-01   1.038732e-02   5.557963e+00   6.156722e-10   3.120460e-01
     13   6.624922e-01   1.042891e-02   5.546566e+00   6.639304e-10   3.120460e-01
     14   6.640365e-01   1.047066e-02   5.535193e+00   7.118208e-10   3.120460e-01
     15   6.655839e-01   1.051259e-02   5.523845e+00   7.593481e-10   3.120460e-01
     16   6.671346e-01   1.055468e-02   5.512521e+00   8.065163e-10   3.120460e-01
     17   6.686884e-01   1.059694e-02   5.501221e+00   8.533299e-10   3.120460e-01
     18   6.702454e-01   1.063937e-02   5.489946e+00   8.997927e-10   3.120460e-01
     19   6.718056e-01   1.068196e-02   5.478695e+00   9.459090e-10   3.120460e-01
     20   6.733691e-01   1.072473e-02   5.467469e+00   9.916826e-10   3.120460e-01
     21   6.749357e-01   1.076767e-02   5.456266e+00   1.037117e-09   3.120460e-01
     22   6.765055e-01   1.081079e-02   5.445087e+00   1.082217e-09   3.120460e-01
     23   6.780786e-01   1.085407e-02   5.433933e+00   1.126986e-09   3.120460e-01
     24   6.796549e-01   1.089753e-02   5.422802e+00   1.171427e-09   3.120460e-01
     25   6.812344e-01   1.094116e-02   5.411696e+00   1.215545e-09   3.120460e-01
     26   6.828172e-01   1.098497e-02   5.400613e+00   1.259342e-09   3.120460e-01
     27   6.844032e-01   1.102895e-02   5.389554e+00   1.302823e-09   3.120460e-01
