# power spectrum of delta_kessence
# redshift z=4.989304
# k              Pk             sigma(k)       sigma(Pk)      count
  9.713012e-03   4.033771e-08   2.406229e-03   4.774203e-09   146
  2.072432e-02   3.947007e-07   3.528511e-03   1.396183e-08   1042
  3.284725e-02   1.133306e-06   3.519819e-03   2.288779e-08   2698
  4.516399e-02   2.181610e-06   3.571852e-03   3.099032e-08   5206
  5.773095e-02   3.734329e-06   3.674394e-03   4.210738e-08   8752
  7.053126e-02   5.820017e-06   3.718866e-03   5.126073e-08   13258
  8.325183e-02   7.781666e-06   3.633038e-03   5.845465e-08   18070
  9.586244e-02   9.182147e-06   3.646001e-03   5.931744e-08   24050
  1.086731e-01   1.093753e-05   3.743375e-03   6.162937e-08   31720
  1.214673e-01   1.364161e-05   3.655693e-03   6.912688e-08   38722
  1.341503e-01   1.617705e-05   3.664149e-03   7.500599e-08   47398
  1.468737e-01   1.791206e-05   3.676840e-03   7.482868e-08   56986
  1.596345e-01   1.918874e-05   3.691904e-03   7.436424e-08   67552
  1.723758e-01   2.130214e-05   3.670421e-03   7.619585e-08   78310
  1.850973e-01   2.377432e-05   3.676755e-03   7.960608e-08   90514
  1.978078e-01   2.656406e-05   3.661019e-03   8.363730e-08   102938
  2.105352e-01   2.772779e-05   3.688328e-03   8.104320e-08   117412
  2.233038e-01   2.922329e-05   3.687633e-03   8.033580e-08   132106
  2.360543e-01   3.087515e-05   3.674616e-03   8.051328e-08   147154
  2.487863e-01   3.305608e-05   3.675727e-03   8.185974e-08   163522
  2.615607e-01   3.536076e-05   3.698362e-03   8.310251e-08   181804
  2.742948e-01   3.671236e-05   3.657995e-03   8.315201e-08   197722
  2.870326e-01   3.774644e-05   3.695982e-03   8.072060e-08   218866
  2.998036e-01   3.953654e-05   3.677083e-03   8.114479e-08   237542
  3.125403e-01   4.115253e-05   3.676719e-03   8.110761e-08   258136
  3.252883e-01   4.291239e-05   3.682574e-03   8.126679e-08   280066
  3.380302e-01   4.400091e-05   3.674707e-03   8.032719e-08   301774
  3.507809e-01   4.509202e-05   3.685866e-03   7.885482e-08   326050
  3.635453e-01   4.644549e-05   3.682723e-03   7.879306e-08   349792
  3.763059e-01   4.779502e-05   3.686387e-03   7.825611e-08   375154
  3.890549e-01   4.906540e-05   3.673994e-03   7.800089e-08   399742
  4.017814e-01   5.038197e-05   3.673301e-03   7.738059e-08   426266
  4.145262e-01   5.103477e-05   3.683104e-03   7.580245e-08   454960
  4.272780e-01   5.207892e-05   3.679614e-03   7.499756e-08   482734
  4.400302e-01   5.315690e-05   3.684412e-03   7.434475e-08   512746
  4.527916e-01   5.411562e-05   3.682552e-03   7.345768e-08   542746
  4.655520e-01   5.466006e-05   3.684426e-03   7.224378e-08   573952
  4.783045e-01   5.538823e-05   3.678870e-03   7.160425e-08   604918
  4.910489e-01   5.631447e-05   3.679488e-03   7.065562e-08   637666
  5.038054e-01   5.682977e-05   3.685840e-03   6.920723e-08   672482
  5.165640e-01   5.772574e-05   3.679909e-03   6.877869e-08   705748
  5.293052e-01   5.816523e-05   3.678052e-03   6.742671e-08   740482
  5.420630e-01   5.856184e-05   3.688653e-03   6.618936e-08   779026
  5.548129e-01   5.891913e-05   3.672495e-03   6.530322e-08   812614
  5.675646e-01   5.939006e-05   3.688923e-03   6.428550e-08   854200
  5.803275e-01   5.976279e-05   3.679836e-03   6.337540e-08   890746
  5.930743e-01   6.017091e-05   3.680017e-03   6.233162e-08   930394
  6.058234e-01   6.053120e-05   3.680076e-03   6.146033e-08   970982
  6.185756e-01   6.075347e-05   3.681715e-03   6.036943e-08   1012600
  6.313355e-01   6.101831e-05   3.685773e-03   5.947079e-08   1055890
  6.440885e-01   6.117847e-05   3.677546e-03   5.856357e-08   1096630
  6.568331e-01   6.110888e-05   3.679931e-03   5.718330e-08   1141378
  6.695858e-01   6.118695e-05   3.681602e-03   5.626280e-08   1186552
  6.823378e-01   6.137574e-05   3.681238e-03   5.541291e-08   1231798
  6.950926e-01   6.121448e-05   3.683520e-03   5.428612e-08   1279234
  7.078494e-01   6.126906e-05   3.681308e-03   5.328970e-08   1325906
  7.206034e-01   6.120278e-05   3.681998e-03   5.223750e-08   1374352
  7.333523e-01   6.108325e-05   3.678754e-03   5.118823e-08   1421950
  7.460986e-01   6.113393e-05   3.681438e-03   5.040162e-08   1472962
  7.588478e-01   6.086085e-05   3.678790e-03   4.933078e-08   1522954
  7.715908e-01   6.064165e-05   3.677970e-03   4.829289e-08   1573804
  7.843534e-01   6.040578e-05   3.691683e-03   4.725416e-08   1632274
  7.971185e-01   6.013859e-05   3.678939e-03   4.642603e-08   1680226
  8.098559e-01   5.982680e-05   3.674931e-03   4.558092e-08   1732682
  8.226044e-01   5.943714e-05   3.684362e-03   4.435865e-08   1792204
  8.353683e-01   5.923015e-05   3.685360e-03   4.354916e-08   1848298
  8.481180e-01   5.886799e-05   3.676906e-03   4.274240e-08   1901050
  8.608642e-01   5.846299e-05   3.681435e-03   4.179456e-08   1961326
  8.736200e-01   5.806506e-05   3.682643e-03   4.094584e-08   2020312
  8.863805e-01   5.768030e-05   3.684838e-03   4.004717e-08   2080930
  8.991420e-01   5.720112e-05   3.683140e-03   3.907251e-08   2140390
  9.118910e-01   5.675329e-05   3.677128e-03   3.836992e-08   2198162
  9.246418e-01   5.627716e-05   3.683722e-03   3.741790e-08   2263864
  9.374012e-01   5.581331e-05   3.683606e-03   3.664223e-08   2326426
  9.501557e-01   5.535120e-05   3.680653e-03   3.586745e-08   2388550
  9.629062e-01   5.472563e-05   3.680356e-03   3.490465e-08   2453098
  9.756546e-01   5.417814e-05   3.679357e-03   3.416348e-08   2517592
  9.884059e-01   5.366543e-05   3.683066e-03   3.342242e-08   2586070
  1.001159e+00   5.310644e-05   3.680738e-03   3.263347e-08   2651842
  1.013911e+00   5.259647e-05   3.680987e-03   3.186608e-08   2720330
  1.026668e+00   5.201774e-05   3.684024e-03   3.118325e-08   2791156
  1.039424e+00   5.147650e-05   3.681208e-03   3.046497e-08   2858554
  1.052176e+00   5.083233e-05   3.681647e-03   2.970761e-08   2929594
  1.064923e+00   5.028891e-05   3.678395e-03   2.901542e-08   2998762
  1.077674e+00   4.967242e-05   3.682468e-03   2.836770e-08   3074188
  1.090422e+00   4.907359e-05   3.678360e-03   2.770958e-08   3143482
  1.103180e+00   4.837703e-05   3.687908e-03   2.694674e-08   3226186
  1.115936e+00   4.786416e-05   3.676634e-03   2.639150e-08   3291158
  1.128688e+00   4.721374e-05   3.685737e-03   2.570277e-08   3375112
  1.141448e+00   4.657948e-05   3.681431e-03   2.509310e-08   3447658
  1.154199e+00   4.598126e-05   3.680732e-03   2.448655e-08   3524626
  1.166950e+00   4.534548e-05   3.680340e-03   2.390127e-08   3602998
  1.179695e+00   4.473244e-05   3.677316e-03   2.335222e-08   3678592
  1.192442e+00   4.411636e-05   3.682841e-03   2.274636e-08   3764122
  1.205202e+00   4.345996e-05   3.684112e-03   2.217711e-08   3846598
  1.217954e+00   4.286615e-05   3.678173e-03   2.162438e-08   3922250
  1.230710e+00   4.216570e-05   3.685590e-03   2.103419e-08   4013032
  1.243470e+00   4.161927e-05   3.681062e-03   2.060151e-08   4091182
  1.256219e+00   4.096032e-05   3.679790e-03   2.008455e-08   4174282
  1.268971e+00   4.038267e-05   3.681900e-03   1.956891e-08   4261978
  1.281726e+00   3.975152e-05   3.682600e-03   1.906704e-08   4348624
  1.294477e+00   3.920811e-05   3.679148e-03   1.863878e-08   4431430
  1.307227e+00   3.852644e-05   3.682586e-03   1.813272e-08   4523290
  1.319983e+00   3.795853e-05   3.681902e-03   1.768564e-08   4611386
  1.332735e+00   3.740533e-05   3.680296e-03   1.726097e-08   4698814
  1.345489e+00   3.679142e-05   3.683391e-03   1.683251e-08   4792984
  1.358246e+00   3.626134e-05   3.682510e-03   1.641253e-08   4883194
  1.370998e+00   3.563286e-05   3.679847e-03   1.599412e-08   4971694
  1.383751e+00   3.505467e-05   3.683258e-03   1.559720e-08   5069434
  1.396503e+00   3.454327e-05   3.679348e-03   1.522088e-08   5157736
  1.409253e+00   3.396643e-05   3.682013e-03   1.483025e-08   5256202
  1.422008e+00   3.342820e-05   3.682033e-03   1.447078e-08   5351990
  1.434759e+00   3.288640e-05   3.679659e-03   1.412114e-08   5444914
  1.447515e+00   3.232843e-05   3.684860e-03   1.372803e-08   5550088
  1.460276e+00   3.182392e-05   3.682696e-03   1.341515e-08   5644774
  1.473027e+00   3.132546e-05   3.679557e-03   1.310079e-08   5739034
  1.485777e+00   3.078812e-05   3.680933e-03   1.275240e-08   5841154
  1.498530e+00   3.028485e-05   3.681993e-03   1.244217e-08   5943448
  1.511286e+00   2.981770e-05   3.682434e-03   1.214166e-08   6045670
  1.524036e+00   2.931399e-05   3.679211e-03   1.183510e-08   6142586
  1.536786e+00   2.881846e-05   3.681853e-03   1.154351e-08   6250738
  1.549543e+00   2.837042e-05   3.683337e-03   1.126056e-08   6357172
  1.562298e+00   2.789492e-05   3.681419e-03   1.099583e-08   6458506
  1.575052e+00   2.743252e-05   3.682170e-03   1.072265e-08   6566290
  1.587803e+00   2.697355e-05   3.679052e-03   1.046323e-08   6667414
  1.600551e+00   2.650978e-05   3.681081e-03   1.020754e-08   6778336
  1.613305e+00   2.609180e-05   3.683166e-03   9.956145e-09   6890218
  1.626056e+00   2.567427e-05   3.679040e-03   9.727902e-09   6992306
  1.638811e+00   2.524048e-05   3.684406e-03   9.483122e-09   7113454
  1.651568e+00   2.485647e-05   3.680582e-03   9.268196e-09   7216216
  1.664317e+00   2.442958e-05   3.680762e-03   9.032712e-09   7328218
  1.677070e+00   2.403377e-05   3.682190e-03   8.826905e-09   7444414
  1.689821e+00   2.367526e-05   3.679673e-03   8.639838e-09   7553290
  1.702576e+00   2.323677e-05   3.684026e-03   8.405063e-09   7676368
  1.715331e+00   2.286820e-05   3.680267e-03   8.212208e-09   7783150
  1.728082e+00   2.251114e-05   3.682357e-03   8.019874e-09   7904570
  1.740836e+00   2.211402e-05   3.680236e-03   7.830155e-09   8017570
  1.753592e+00   2.178789e-05   3.684218e-03   7.651037e-09   8143840
  1.766349e+00   2.141494e-05   3.680993e-03   7.473489e-09   8255134
  1.779097e+00   2.108479e-05   3.679373e-03   7.301252e-09   8371450
  1.791848e+00   2.073377e-05   3.682049e-03   7.123821e-09   8498578
  1.804607e+00   2.043107e-05   3.683747e-03   6.972907e-09   8623180
  1.817364e+00   2.008964e-05   3.682371e-03   6.807541e-09   8742034
  1.830116e+00   1.976097e-05   3.679631e-03   6.655680e-09   8859194
  1.842864e+00   1.944946e-05   3.680027e-03   6.509741e-09   8984386
  1.855615e+00   1.916087e-05   3.681221e-03   6.365087e-09   9111652
  1.868371e+00   1.883248e-05   3.683946e-03   6.210443e-09   9243322
  1.881126e+00   1.855362e-05   3.680271e-03   6.082546e-09   9361378
  1.893877e+00   1.826008e-05   3.681448e-03   5.948305e-09   9491998
  1.906629e+00   1.797328e-05   3.680822e-03   5.814591e-09   9618016
  1.919381e+00   1.770188e-05   3.682003e-03   5.688357e-09   9750178
  1.932133e+00   1.741845e-05   3.680253e-03   5.564752e-09   9875558
  1.944887e+00   1.714542e-05   3.683525e-03   5.437982e-09   10015834
  1.957639e+00   1.689099e-05   3.678626e-03   5.322062e-09   10133344
  1.970392e+00   1.664753e-05   3.684706e-03   5.214287e-09   10282522
  1.983150e+00   1.638375e-05   3.681133e-03   5.094536e-09   10406974
  1.995898e+00   1.614337e-05   3.678810e-03   4.988214e-09   10534378
  2.008651e+00   1.590182e-05   3.684003e-03   4.885615e-09   10684456
  2.021409e+00   1.565469e-05   3.681823e-03   4.777542e-09   10813894
  2.034159e+00   1.542560e-05   3.679680e-03   4.677059e-09   10944626
  2.046911e+00   1.520470e-05   3.682687e-03   4.580024e-09   11091802
  2.059666e+00   1.496348e-05   3.681058e-03   4.484352e-09   11224756
  2.072419e+00   1.473794e-05   3.682125e-03   4.390046e-09   11367730
  2.085174e+00   1.453069e-05   3.681936e-03   4.300370e-09   11507890
  2.097925e+00   1.431905e-05   3.679320e-03   4.211823e-09   11640658
  2.110678e+00   1.410796e-05   3.683383e-03   4.124504e-09   11795380
  2.123435e+00   1.390118e-05   3.682010e-03   4.039259e-09   11933434
  2.136188e+00   1.369979e-05   3.681227e-03   3.960104e-09   12074954
  2.148943e+00   1.350460e-05   3.682833e-03   3.880696e-09   12225142
  2.161693e+00   1.330176e-05   3.678591e-03   3.801938e-09   12356104
  2.174441e+00   1.313060e-05   3.681911e-03   3.730098e-09   12513442
  2.187198e+00   1.292505e-05   3.683046e-03   3.647823e-09   12664810
  2.199955e+00   1.275767e-05   3.682461e-03   3.580396e-09   12811246
  2.212709e+00   1.256967e-05   3.680738e-03   3.508975e-09   12953536
  2.225459e+00   1.239138e-05   3.681278e-03   3.440389e-09   13105042
  2.238213e+00   1.221838e-05   3.681995e-03   3.369838e-09   13258670
  2.250966e+00   1.205124e-05   3.681453e-03   3.306648e-09   13408738
  2.263720e+00   1.187848e-05   3.681812e-03   3.242609e-09   13562320
  2.276472e+00   1.171749e-05   3.680281e-03   3.182119e-09   13709062
  2.289223e+00   1.155736e-05   3.682002e-03   3.118858e-09   13870258
  2.301982e+00   1.140282e-05   3.683866e-03   3.060430e-09   14032714
  2.314735e+00   1.123897e-05   3.678901e-03   3.003304e-09   14169232
  2.327485e+00   1.109387e-05   3.682472e-03   2.945577e-09   14339422
  2.340238e+00   1.093083e-05   3.680575e-03   2.888174e-09   14489330
  2.352991e+00   1.079380e-05   3.682051e-03   2.837142e-09   14654458
  2.365744e+00   1.064185e-05   3.680808e-03   2.783274e-09   14808292
  2.378495e+00   1.050439e-05   3.681362e-03   2.731440e-09   14970130
  2.391248e+00   1.036129e-05   3.681409e-03   2.682814e-09   15131626
  2.403999e+00   1.021669e-05   3.680405e-03   2.629286e-09   15289198
  2.416755e+00   1.007900e-05   3.683835e-03   2.578317e-09   15466552
  2.429511e+00   9.954057e-06   3.680792e-03   2.533832e-09   15616714
  2.442261e+00   9.825052e-06   3.680631e-03   2.489548e-09   15780506
  2.455014e+00   9.683762e-06   3.682312e-03   2.439439e-09   15953542
  2.467771e+00   9.559733e-06   3.682809e-03   2.396818e-09   16121296
  2.480521e+00   9.436702e-06   3.678892e-03   2.355243e-09   16270762
  2.493272e+00   9.312755e-06   3.683074e-03   2.311502e-09   16457182
  2.506029e+00   9.192511e-06   3.682337e-03   2.271218e-09   16623562
  2.518783e+00   9.072924e-06   3.680725e-03   2.231743e-09   16785784
  2.531534e+00   8.958070e-06   3.681653e-03   2.191984e-09   16959370
  2.544288e+00   8.844059e-06   3.682022e-03   2.153904e-09   17132774
  2.557041e+00   8.731163e-06   3.680981e-03   2.113962e-09   17300602
  2.569795e+00   8.619979e-06   3.682396e-03   2.077735e-09   17480656
  2.582549e+00   8.506401e-06   3.681028e-03   2.041083e-09   17647558
  2.595301e+00   8.398229e-06   3.681358e-03   2.003416e-09   17823778
  2.608054e+00   8.294385e-06   3.681613e-03   1.970583e-09   18001594
  2.620806e+00   8.188508e-06   3.680526e-03   1.936461e-09   18172300
  2.633559e+00   8.089228e-06   3.682066e-03   1.904728e-09   18356770
  2.646316e+00   7.984101e-06   3.683321e-03   1.870296e-09   18541082
  2.659073e+00   7.886284e-06   3.681934e-03   1.838379e-09   18713914
  2.671823e+00   7.787316e-06   3.679083e-03   1.807785e-09   18879742
  2.684574e+00   7.696650e-06   3.682617e-03   1.777665e-09   19077592
  2.697329e+00   7.600580e-06   3.681921e-03   1.747419e-09   19255474
  2.710083e+00   7.504691e-06   3.681561e-03   1.717572e-09   19436278
  2.722832e+00   7.411196e-06   3.678954e-03   1.689190e-09   19605994
  2.735585e+00   7.319312e-06   3.684099e-03   1.659945e-09   19817344
  2.748342e+00   7.234981e-06   3.681109e-03   1.634211e-09   19985702
  2.761094e+00   7.147548e-06   3.681644e-03   1.606629e-09   20175730
  2.773845e+00   7.057509e-06   3.679912e-03   1.578873e-09   20352682
  2.786598e+00   6.973908e-06   3.683498e-03   1.553755e-09   20559616
  2.799356e+00   6.891178e-06   3.682280e-03   1.528719e-09   20741518
  2.812105e+00   6.807621e-06   3.678894e-03   1.504584e-09   20912026
  2.824855e+00   6.725591e-06   3.682015e-03   1.478643e-09   21121018
  2.837610e+00   6.649420e-06   3.681802e-03   1.456126e-09   21310012
  2.850362e+00   6.568452e-06   3.680813e-03   1.432206e-09   21496154
  2.863118e+00   6.490661e-06   3.683473e-03   1.408606e-09   21705946
  2.875873e+00   6.416271e-06   3.680669e-03   1.386438e-09   21882562
  2.888626e+00   6.337105e-06   3.682162e-03   1.363499e-09   22085428
  2.901384e+00   6.261105e-06   3.683214e-03   1.341872e-09   22287106
  2.914134e+00   6.188552e-06   3.678437e-03   1.320909e-09   22455010
  2.926883e+00   6.122482e-06   3.681607e-03   1.301569e-09   22671694
  2.939638e+00   6.046565e-06   3.682507e-03   1.278825e-09   22874368
  2.952394e+00   5.977531e-06   3.682002e-03   1.259638e-09   23070146
  2.965147e+00   5.908722e-06   3.681033e-03   1.240362e-09   23264038
  2.977898e+00   5.838987e-06   3.680981e-03   1.220429e-09   23464210
  2.990653e+00   5.775854e-06   3.683188e-03   1.201941e-09   23679208
  3.003408e+00   5.707236e-06   3.681184e-03   1.183293e-09   23868658
  3.016160e+00   5.642508e-06   3.680900e-03   1.164167e-09   24070582
  3.028912e+00   5.577928e-06   3.681593e-03   1.147648e-09   24278842
  3.041665e+00   5.516101e-06   3.681417e-03   1.129658e-09   24482272
  3.054418e+00   5.454139e-06   3.681719e-03   1.112351e-09   24689510
  3.067171e+00   5.393346e-06   3.681372e-03   1.095695e-09   24894634
  3.079925e+00   5.335297e-06   3.682228e-03   1.079984e-09   25108474
  3.092680e+00   5.271443e-06   3.681825e-03   1.062902e-09   25313116
  3.105433e+00   5.214623e-06   3.680868e-03   1.046797e-09   25515970
  3.118184e+00   5.154785e-06   3.681155e-03   1.030854e-09   25727962
  3.130938e+00   5.100321e-06   3.682510e-03   1.016062e-09   25948954
  3.143694e+00   5.045497e-06   3.682026e-03   1.000825e-09   26157220
  3.156445e+00   4.988729e-06   3.679581e-03   9.865601e-10   26351546
  3.169196e+00   4.933980e-06   3.682249e-03   9.714044e-10   26585314
  3.181952e+00   4.881383e-06   3.682365e-03   9.570463e-10   26800630
  3.194706e+00   4.826815e-06   3.680714e-03   9.434667e-10   27003376
  3.207455e+00   4.773504e-06   3.679962e-03   9.293111e-10   27213202
  3.220208e+00   4.724090e-06   3.683357e-03   9.164573e-10   27455194
  3.232966e+00   4.672599e-06   3.682253e-03   9.030765e-10   27666070
  3.245719e+00   4.619713e-06   3.680401e-03   8.896300e-10   27870280
  3.258468e+00   4.572937e-06   3.680260e-03   8.770289e-10   28088090
  3.271220e+00   4.522884e-06   3.682540e-03   8.641640e-10   28326262
  3.283977e+00   4.475135e-06   3.682410e-03   8.520254e-10   28546906
  3.296732e+00   4.427479e-06   3.681571e-03   8.399159e-10   28762552
  3.309484e+00   4.379574e-06   3.681027e-03   8.277496e-10   28979734
  3.322237e+00   4.332704e-06   3.681948e-03   8.161860e-10   29211106
  3.334990e+00   4.289184e-06   3.681286e-03   8.047446e-10   29431738
  3.347741e+00   4.244613e-06   3.680281e-03   7.936769e-10   29648776
  3.360493e+00   4.200069e-06   3.682059e-03   7.825264e-10   29888654
  3.373249e+00   4.152384e-06   3.682995e-03   7.709198e-10   30123490
  3.386003e+00   4.111551e-06   3.680742e-03   7.608752e-10   30334570
  3.398755e+00   4.069160e-06   3.681166e-03   7.504042e-10   30566524
  3.411507e+00   4.028264e-06   3.681508e-03   7.405483e-10   30798370
  3.424265e+00   3.986790e-06   3.684101e-03   7.297379e-10   31052026
  3.437018e+00   3.944788e-06   3.679094e-03   7.200417e-10   31241782
  3.449769e+00   3.903588e-06   3.682408e-03   7.093539e-10   31502128
  3.462523e+00   3.864289e-06   3.680952e-03   7.003385e-10   31721474
  3.475274e+00   3.825119e-06   3.681379e-03   6.906293e-10   31960210
  3.488028e+00   3.785789e-06   3.681819e-03   6.812430e-10   32200582
  3.500782e+00   3.745733e-06   3.681186e-03   6.719973e-10   32429512
  3.513537e+00   3.710513e-06   3.683389e-03   6.631689e-10   32685226
  3.526292e+00   3.674137e-06   3.680900e-03   6.548527e-10   32900830
  3.539043e+00   3.635340e-06   3.680394e-03   6.458563e-10   33135682
  3.551794e+00   3.598223e-06   3.681624e-03   6.370516e-10   33385288
  3.564548e+00   3.563430e-06   3.681804e-03   6.287234e-10   33625706
  3.577303e+00   3.528072e-06   3.682363e-03   6.204613e-10   33873550
  3.590054e+00   3.493421e-06   3.679768e-03   6.126870e-10   34091770
  3.602807e+00   3.457303e-06   3.682821e-03   6.039424e-10   34362160
