# power spectrum of delta_kessence
# redshift z=2.976793
# k              Pk             sigma(k)       sigma(Pk)      count
  9.713012e-03   8.773503e-08   2.406229e-03   1.040093e-08   146
  2.072432e-02   8.661902e-07   3.528511e-03   3.066594e-08   1042
  3.284725e-02   2.489921e-06   3.519819e-03   5.030569e-08   2698
  4.516399e-02   4.793398e-06   3.571852e-03   6.806564e-08   5206
  5.773095e-02   8.200088e-06   3.674394e-03   9.241349e-08   8752
  7.053126e-02   1.276709e-05   3.718866e-03   1.125261e-07   13258
  8.325183e-02   1.706336e-05   3.633038e-03   1.282130e-07   18070
  9.586244e-02   2.011872e-05   3.646001e-03   1.300157e-07   24050
  1.086731e-01   2.395001e-05   3.743375e-03   1.349825e-07   31720
  1.214673e-01   2.981737e-05   3.655693e-03   1.510843e-07   38722
  1.341503e-01   3.529528e-05   3.664149e-03   1.635378e-07   47398
  1.468737e-01   3.904503e-05   3.676840e-03   1.630690e-07   56986
  1.596345e-01   4.181501e-05   3.691904e-03   1.620320e-07   67552
  1.723758e-01   4.633203e-05   3.670421e-03   1.656626e-07   78310
  1.850973e-01   5.160575e-05   3.676755e-03   1.728214e-07   90514
  1.978078e-01   5.752266e-05   3.661019e-03   1.810879e-07   102938
  2.105352e-01   5.992899e-05   3.688328e-03   1.751854e-07   117412
  2.233038e-01   6.306532e-05   3.687633e-03   1.734032e-07   132106
  2.360543e-01   6.650817e-05   3.674616e-03   1.733294e-07   147154
  2.487863e-01   7.102114e-05   3.675727e-03   1.758836e-07   163522
  2.615607e-01   7.579764e-05   3.698362e-03   1.782743e-07   181804
  2.742948e-01   7.847560e-05   3.657995e-03   1.777517e-07   197722
  2.870326e-01   8.052153e-05   3.695982e-03   1.723184e-07   218866
  2.998036e-01   8.408782e-05   3.677083e-03   1.726664e-07   237542
  3.125403e-01   8.720721e-05   3.676719e-03   1.719005e-07   258136
  3.252883e-01   9.060881e-05   3.682574e-03   1.716119e-07   280066
  3.380302e-01   9.266358e-05   3.674707e-03   1.690988e-07   301774
  3.507809e-01   9.469404e-05   3.685866e-03   1.657472e-07   326050
  3.635453e-01   9.726593e-05   3.682723e-03   1.649448e-07   349792
  3.763059e-01   9.970491e-05   3.686387e-03   1.632679e-07   375154
  3.890549e-01   1.019982e-04   3.673994e-03   1.620490e-07   399742
  4.017814e-01   1.042932e-04   3.673301e-03   1.603198e-07   426266
  4.145262e-01   1.051979e-04   3.683104e-03   1.563019e-07   454960
  4.272780e-01   1.070532e-04   3.679614e-03   1.541256e-07   482734
  4.400302e-01   1.088183e-04   3.684412e-03   1.521761e-07   512746
  4.527916e-01   1.101946e-04   3.682552e-03   1.496495e-07   542746
  4.655520e-01   1.109523e-04   3.684426e-03   1.466798e-07   573952
  4.783045e-01   1.119655e-04   3.678870e-03   1.446512e-07   604918
  4.910489e-01   1.133315e-04   3.679488e-03   1.422191e-07   637666
  5.038054e-01   1.139220e-04   3.685840e-03   1.387690e-07   672482
  5.165640e-01   1.151346e-04   3.679909e-03   1.373099e-07   705748
  5.293052e-01   1.154919e-04   3.678052e-03   1.339543e-07   740482
  5.420630e-01   1.156652e-04   3.688653e-03   1.306607e-07   779026
  5.548129e-01   1.159259e-04   3.672495e-03   1.284310e-07   812614
  5.675646e-01   1.161657e-04   3.688923e-03   1.257234e-07   854200
  5.803275e-01   1.163003e-04   3.679836e-03   1.232942e-07   890746
  5.930743e-01   1.165206e-04   3.680017e-03   1.207806e-07   930394
  6.058234e-01   1.165962e-04   3.680076e-03   1.183084e-07   970982
  6.185756e-01   1.164603e-04   3.681715e-03   1.158324e-07   1012600
  6.313355e-01   1.164035e-04   3.685773e-03   1.134311e-07   1055890
  6.440885e-01   1.160794e-04   3.677546e-03   1.110179e-07   1096630
  6.568331e-01   1.153371e-04   3.679931e-03   1.078877e-07   1141378
  6.695858e-01   1.148666e-04   3.681602e-03   1.056258e-07   1186552
  6.823378e-01   1.146925e-04   3.681238e-03   1.035585e-07   1231798
  6.950926e-01   1.137384e-04   3.683520e-03   1.008806e-07   1279234
  7.078494e-01   1.131830e-04   3.681308e-03   9.833034e-08   1325906
  7.206034e-01   1.124102e-04   3.681998e-03   9.587317e-08   1374352
  7.333523e-01   1.117655e-04   3.678754e-03   9.358761e-08   1421950
  7.460986e-01   1.110587e-04   3.681438e-03   9.148386e-08   1472962
  7.588478e-01   1.101114e-04   3.678790e-03   8.915489e-08   1522954
  7.715908e-01   1.091865e-04   3.677970e-03   8.694033e-08   1573804
  7.843534e-01   1.080472e-04   3.691683e-03   8.455816e-08   1632274
  7.971185e-01   1.069762e-04   3.678939e-03   8.260468e-08   1680226
  8.098559e-01   1.058897e-04   3.674931e-03   8.057830e-08   1732682
  8.226044e-01   1.046477e-04   3.684362e-03   7.813369e-08   1792204
  8.353683e-01   1.036953e-04   3.685360e-03   7.629519e-08   1848298
  8.481180e-01   1.025442e-04   3.676906e-03   7.445960e-08   1901050
  8.608642e-01   1.013102e-04   3.681435e-03   7.243106e-08   1961326
  8.736200e-01   1.002581e-04   3.682643e-03   7.062155e-08   2020312
  8.863805e-01   9.899322e-05   3.684838e-03   6.876453e-08   2080930
  8.991420e-01   9.769346e-05   3.683140e-03   6.675875e-08   2140390
  9.118910e-01   9.640840e-05   3.677128e-03   6.509630e-08   2198162
  9.246418e-01   9.517862e-05   3.683722e-03   6.329411e-08   2263864
  9.374012e-01   9.388042e-05   3.683606e-03   6.162031e-08   2326426
  9.501557e-01   9.277592e-05   3.680653e-03   6.011771e-08   2388550
  9.629062e-01   9.130034e-05   3.680356e-03   5.825621e-08   2453098
  9.756546e-01   9.000398e-05   3.679357e-03   5.671941e-08   2517592
  9.884059e-01   8.866626e-05   3.683066e-03   5.522500e-08   2586070
  1.001159e+00   8.733281e-05   3.680738e-03   5.365048e-08   2651842
  1.013911e+00   8.627283e-05   3.680987e-03   5.235417e-08   2720330
  1.026668e+00   8.490757e-05   3.684024e-03   5.085797e-08   2791156
  1.039424e+00   8.373291e-05   3.681208e-03   4.953449e-08   2858554
  1.052176e+00   8.241398e-05   3.681647e-03   4.814989e-08   2929594
  1.064923e+00   8.128520e-05   3.678395e-03   4.691363e-08   2998762
  1.077674e+00   7.997099e-05   3.682468e-03   4.563696e-08   3074188
  1.090422e+00   7.871134e-05   3.678360e-03   4.445395e-08   3143482
  1.103180e+00   7.731264e-05   3.687908e-03   4.305553e-08   3226186
  1.115936e+00   7.628704e-05   3.676634e-03   4.202886e-08   3291158
  1.128688e+00   7.502985e-05   3.685737e-03   4.084089e-08   3375112
  1.141448e+00   7.376546e-05   3.681431e-03   3.972079e-08   3447658
  1.154199e+00   7.271534e-05   3.680732e-03   3.873979e-08   3524626
  1.166950e+00   7.151605e-05   3.680340e-03   3.769672e-08   3602998
  1.179695e+00   7.038865e-05   3.677316e-03   3.675895e-08   3678592
  1.192442e+00   6.928761e-05   3.682841e-03   3.574254e-08   3764122
  1.205202e+00   6.811459e-05   3.684112e-03   3.478247e-08   3846598
  1.217954e+00   6.709150e-05   3.678173e-03   3.386265e-08   3922250
  1.230710e+00   6.593732e-05   3.685590e-03   3.290497e-08   4013032
  1.243470e+00   6.494376e-05   3.681062e-03   3.213510e-08   4091182
  1.256219e+00   6.384579e-05   3.679790e-03   3.127434e-08   4174282
  1.268971e+00   6.288758e-05   3.681900e-03   3.049752e-08   4261978
  1.281726e+00   6.181515e-05   3.682600e-03   2.968781e-08   4348624
  1.294477e+00   6.095697e-05   3.679148e-03   2.898957e-08   4431430
  1.307227e+00   5.982108e-05   3.682586e-03   2.817111e-08   4523290
  1.319983e+00   5.894191e-05   3.681902e-03   2.748510e-08   4611386
  1.332735e+00   5.809039e-05   3.680296e-03   2.678817e-08   4698814
  1.345489e+00   5.710599e-05   3.683391e-03   2.612424e-08   4792984
  1.358246e+00   5.630445e-05   3.682510e-03   2.545828e-08   4883194
  1.370998e+00   5.535188e-05   3.679847e-03   2.483290e-08   4971694
  1.383751e+00   5.451093e-05   3.683258e-03   2.425731e-08   5069434
  1.396503e+00   5.368953e-05   3.679348e-03   2.364964e-08   5157736
  1.409253e+00   5.284899e-05   3.682013e-03   2.308626e-08   5256202
  1.422008e+00   5.209713e-05   3.682033e-03   2.253761e-08   5351990
  1.434759e+00   5.126111e-05   3.679659e-03   2.202664e-08   5444914
  1.447515e+00   5.044727e-05   3.684860e-03   2.142601e-08   5550088
  1.460276e+00   4.973800e-05   3.682696e-03   2.095971e-08   5644774
  1.473027e+00   4.899177e-05   3.679557e-03   2.049727e-08   5739034
  1.485777e+00   4.827505e-05   3.680933e-03   1.999635e-08   5841154
  1.498530e+00   4.755596e-05   3.681993e-03   1.954279e-08   5943448
  1.511286e+00   4.690142e-05   3.682434e-03   1.911057e-08   6045670
  1.524036e+00   4.615779e-05   3.679211e-03   1.864395e-08   6142586
  1.536786e+00   4.553583e-05   3.681853e-03   1.824403e-08   6250738
  1.549543e+00   4.488848e-05   3.683337e-03   1.781728e-08   6357172
  1.562298e+00   4.425216e-05   3.681419e-03   1.742067e-08   6458506
  1.575052e+00   4.362176e-05   3.682170e-03   1.704060e-08   6566290
  1.587803e+00   4.299152e-05   3.679052e-03   1.666938e-08   6667414
  1.600551e+00   4.239502e-05   3.681081e-03   1.630745e-08   6778336
  1.613305e+00   4.181445e-05   3.683166e-03   1.593909e-08   6890218
  1.626056e+00   4.123970e-05   3.679040e-03   1.561497e-08   6992306
  1.638811e+00   4.065229e-05   3.684406e-03   1.526586e-08   7113454
  1.651568e+00   4.016371e-05   3.680582e-03   1.496394e-08   7216216
  1.664317e+00   3.959682e-05   3.680762e-03   1.464784e-08   7328218
  1.677070e+00   3.903632e-05   3.682190e-03   1.432689e-08   7444414
  1.689821e+00   3.857235e-05   3.679673e-03   1.405526e-08   7553290
  1.702576e+00   3.798667e-05   3.684026e-03   1.372833e-08   7676368
  1.715331e+00   3.751800e-05   3.680267e-03   1.346995e-08   7783150
  1.728082e+00   3.700362e-05   3.682357e-03   1.317824e-08   7904570
  1.740836e+00   3.654765e-05   3.680236e-03   1.292932e-08   8017570
  1.753592e+00   3.606336e-05   3.684218e-03   1.266408e-08   8143840
  1.766349e+00   3.560094e-05   3.680993e-03   1.241430e-08   8255134
  1.779097e+00   3.515048e-05   3.679373e-03   1.216237e-08   8371450
  1.791848e+00   3.468441e-05   3.682049e-03   1.190893e-08   8498578
  1.804607e+00   3.430539e-05   3.683747e-03   1.169813e-08   8623180
  1.817364e+00   3.386611e-05   3.682371e-03   1.146207e-08   8742034
  1.830116e+00   3.342279e-05   3.679631e-03   1.124836e-08   8859194
  1.842864e+00   3.297904e-05   3.680027e-03   1.102455e-08   8984386
  1.855615e+00   3.259052e-05   3.681221e-03   1.081848e-08   9111652
  1.868371e+00   3.216937e-05   3.683946e-03   1.059464e-08   9243322
  1.881126e+00   3.180557e-05   3.680271e-03   1.041702e-08   9361378
  1.893877e+00   3.141923e-05   3.681448e-03   1.022677e-08   9491998
  1.906629e+00   3.103089e-05   3.680822e-03   1.002475e-08   9618016
  1.919381e+00   3.065304e-05   3.682003e-03   9.838250e-09   9750178
  1.932133e+00   3.028017e-05   3.680253e-03   9.657389e-09   9875558
  1.944887e+00   2.991175e-05   3.683525e-03   9.471836e-09   10015834
  1.957639e+00   2.957643e-05   3.678626e-03   9.316657e-09   10133344
  1.970392e+00   2.922781e-05   3.684706e-03   9.135892e-09   10282522
  1.983150e+00   2.886832e-05   3.681133e-03   8.971566e-09   10406974
  1.995898e+00   2.859930e-05   3.678810e-03   8.827881e-09   10534378
  2.008651e+00   2.823080e-05   3.684003e-03   8.655241e-09   10684456
  2.021409e+00   2.790353e-05   3.681823e-03   8.504837e-09   10813894
  2.034159e+00   2.760124e-05   3.679680e-03   8.358236e-09   10944626
  2.046911e+00   2.727943e-05   3.682687e-03   8.205931e-09   11091802
  2.059666e+00   2.697123e-05   3.681058e-03   8.064914e-09   11224756
  2.072419e+00   2.665935e-05   3.682125e-03   7.920407e-09   11367730
  2.085174e+00   2.636255e-05   3.681936e-03   7.793954e-09   11507890
  2.097925e+00   2.606365e-05   3.679320e-03   7.655278e-09   11640658
  2.110678e+00   2.577615e-05   3.683383e-03   7.521819e-09   11795380
  2.123435e+00   2.550110e-05   3.682010e-03   7.406044e-09   11933434
  2.136188e+00   2.519219e-05   3.681227e-03   7.268431e-09   12074954
  2.148943e+00   2.493247e-05   3.682833e-03   7.153227e-09   12225142
  2.161693e+00   2.465382e-05   3.678591e-03   7.032820e-09   12356104
  2.174441e+00   2.439932e-05   3.681911e-03   6.912263e-09   12513442
  2.187198e+00   2.411563e-05   3.683046e-03   6.795018e-09   12664810
  2.199955e+00   2.386708e-05   3.682461e-03   6.691511e-09   12811246
  2.212709e+00   2.362052e-05   3.680738e-03   6.576854e-09   12953536
  2.225459e+00   2.336191e-05   3.681278e-03   6.471921e-09   13105042
  2.238213e+00   2.311825e-05   3.681995e-03   6.363696e-09   13258670
  2.250966e+00   2.288617e-05   3.681453e-03   6.265392e-09   13408738
  2.263720e+00   2.263441e-05   3.681812e-03   6.165904e-09   13562320
  2.276472e+00   2.240575e-05   3.680281e-03   6.069629e-09   13709062
  2.289223e+00   2.217539e-05   3.682002e-03   5.974287e-09   13870258
  2.301982e+00   2.194465e-05   3.683866e-03   5.875669e-09   14032714
  2.314735e+00   2.172019e-05   3.678901e-03   5.786387e-09   14169232
  2.327485e+00   2.151231e-05   3.682472e-03   5.694514e-09   14339422
  2.340238e+00   2.127295e-05   3.680575e-03   5.602059e-09   14489330
  2.352991e+00   2.106960e-05   3.682051e-03   5.519898e-09   14654458
  2.365744e+00   2.085805e-05   3.680808e-03   5.441806e-09   14808292
  2.378495e+00   2.064174e-05   3.681362e-03   5.352507e-09   14970130
  2.391248e+00   2.043651e-05   3.681409e-03   5.269240e-09   15131626
  2.403999e+00   2.024094e-05   3.680405e-03   5.194527e-09   15289198
  2.416755e+00   2.003633e-05   3.683835e-03   5.111746e-09   15466552
  2.429511e+00   1.982674e-05   3.680792e-03   5.032177e-09   15616714
  2.442261e+00   1.964756e-05   3.680631e-03   4.962200e-09   15780506
  2.455014e+00   1.944662e-05   3.682312e-03   4.886374e-09   15953542
  2.467771e+00   1.925550e-05   3.682809e-03   4.811896e-09   16121296
  2.480521e+00   1.908085e-05   3.678892e-03   4.747205e-09   16270762
  2.493272e+00   1.889238e-05   3.683074e-03   4.673285e-09   16457182
  2.506029e+00   1.870592e-05   3.682337e-03   4.607297e-09   16623562
  2.518783e+00   1.852023e-05   3.680725e-03   4.534113e-09   16785784
  2.531534e+00   1.835047e-05   3.681653e-03   4.472802e-09   16959370
  2.544288e+00   1.817410e-05   3.682022e-03   4.408552e-09   17132774
  2.557041e+00   1.800745e-05   3.680981e-03   4.346203e-09   17300602
  2.569795e+00   1.783675e-05   3.682396e-03   4.282734e-09   17480656
  2.582549e+00   1.767587e-05   3.681028e-03   4.225561e-09   17647558
  2.595301e+00   1.749521e-05   3.681358e-03   4.159220e-09   17823778
  2.608054e+00   1.733805e-05   3.681613e-03   4.101691e-09   18001594
  2.620806e+00   1.716483e-05   3.680526e-03   4.043533e-09   18172300
  2.633559e+00   1.702074e-05   3.682066e-03   3.988918e-09   18356770
  2.646316e+00   1.685535e-05   3.683321e-03   3.932223e-09   18541082
  2.659073e+00   1.669970e-05   3.681934e-03   3.878112e-09   18713914
  2.671823e+00   1.654980e-05   3.679083e-03   3.827434e-09   18879742
  2.684574e+00   1.640626e-05   3.682617e-03   3.772236e-09   19077592
  2.697329e+00   1.624973e-05   3.681921e-03   3.718437e-09   19255474
  2.710083e+00   1.610387e-05   3.681561e-03   3.668530e-09   19436278
  2.722832e+00   1.595029e-05   3.678954e-03   3.616920e-09   19605994
  2.735585e+00   1.581966e-05   3.684099e-03   3.568526e-09   19817344
  2.748342e+00   1.566785e-05   3.681109e-03   3.522212e-09   19985702
  2.761094e+00   1.553308e-05   3.681644e-03   3.472629e-09   20175730
  2.773845e+00   1.539852e-05   3.679912e-03   3.430130e-09   20352682
  2.786598e+00   1.525814e-05   3.683498e-03   3.383838e-09   20559616
  2.799356e+00   1.512748e-05   3.682280e-03   3.337789e-09   20741518
  2.812105e+00   1.501164e-05   3.678894e-03   3.299463e-09   20912026
  2.824855e+00   1.486182e-05   3.682015e-03   3.250689e-09   21121018
  2.837610e+00   1.473598e-05   3.681802e-03   3.207730e-09   21310012
  2.850362e+00   1.460212e-05   3.680813e-03   3.165673e-09   21496154
  2.863118e+00   1.447365e-05   3.683473e-03   3.122254e-09   21705946
  2.875873e+00   1.436011e-05   3.680669e-03   3.086600e-09   21882562
  2.888626e+00   1.423372e-05   3.682162e-03   3.044497e-09   22085428
  2.901384e+00   1.410179e-05   3.683214e-03   3.002335e-09   22287106
  2.914134e+00   1.397963e-05   3.678437e-03   2.966149e-09   22455010
  2.926883e+00   1.386441e-05   3.681607e-03   2.929532e-09   22671694
  2.939638e+00   1.374585e-05   3.682507e-03   2.892110e-09   22874368
  2.952394e+00   1.362251e-05   3.682002e-03   2.852301e-09   23070146
  2.965147e+00   1.351099e-05   3.681033e-03   2.818266e-09   23264038
  2.977898e+00   1.340027e-05   3.680981e-03   2.782275e-09   23464210
  2.990653e+00   1.329434e-05   3.683188e-03   2.748293e-09   23679208
  3.003408e+00   1.318213e-05   3.681184e-03   2.712859e-09   23868658
  3.016160e+00   1.306451e-05   3.680900e-03   2.678962e-09   24070582
  3.028912e+00   1.295424e-05   3.681593e-03   2.644913e-09   24278842
  3.041665e+00   1.285447e-05   3.681417e-03   2.613498e-09   24482272
  3.054418e+00   1.274508e-05   3.681719e-03   2.580472e-09   24689510
  3.067171e+00   1.263818e-05   3.681372e-03   2.548547e-09   24894634
  3.079925e+00   1.253902e-05   3.682228e-03   2.519153e-09   25108474
  3.092680e+00   1.243678e-05   3.681825e-03   2.487296e-09   25313116
  3.105433e+00   1.232521e-05   3.680868e-03   2.456074e-09   25515970
  3.118184e+00   1.222339e-05   3.681155e-03   2.426606e-09   25727962
  3.130938e+00   1.212401e-05   3.682510e-03   2.395276e-09   25948954
  3.143694e+00   1.202693e-05   3.682026e-03   2.368278e-09   26157220
  3.156445e+00   1.192900e-05   3.679581e-03   2.339990e-09   26351546
  3.169196e+00   1.183620e-05   3.682249e-03   2.312707e-09   26585314
  3.181952e+00   1.173552e-05   3.682365e-03   2.283947e-09   26800630
  3.194706e+00   1.164276e-05   3.680714e-03   2.256295e-09   27003376
  3.207455e+00   1.155150e-05   3.679962e-03   2.230021e-09   27213202
  3.220208e+00   1.145968e-05   3.683357e-03   2.202573e-09   27455194
  3.232966e+00   1.136126e-05   3.682253e-03   2.174481e-09   27666070
  3.245719e+00   1.127588e-05   3.680401e-03   2.152248e-09   27870280
  3.258468e+00   1.118298e-05   3.680260e-03   2.125900e-09   28088090
  3.271220e+00   1.109063e-05   3.682540e-03   2.100109e-09   28326262
  3.283977e+00   1.100836e-05   3.682410e-03   2.077342e-09   28546906
  3.296732e+00   1.092321e-05   3.681571e-03   2.052457e-09   28762552
  3.309484e+00   1.083303e-05   3.681027e-03   2.028369e-09   28979734
  3.322237e+00   1.074785e-05   3.681948e-03   2.005012e-09   29211106
  3.334990e+00   1.066534e-05   3.681286e-03   1.981262e-09   29431738
  3.347741e+00   1.057785e-05   3.680281e-03   1.959586e-09   29648776
  3.360493e+00   1.049630e-05   3.682059e-03   1.935715e-09   29888654
  3.373249e+00   1.041461e-05   3.682995e-03   1.914126e-09   30123490
  3.386003e+00   1.033740e-05   3.680742e-03   1.893152e-09   30334570
  3.398755e+00   1.025430e-05   3.681166e-03   1.870590e-09   30566524
  3.411507e+00   1.017450e-05   3.681508e-03   1.850608e-09   30798370
  3.424265e+00   1.009777e-05   3.684101e-03   1.827826e-09   31052026
  3.437018e+00   1.002038e-05   3.679094e-03   1.808535e-09   31241782
  3.449769e+00   9.936665e-06   3.682408e-03   1.786259e-09   31502128
  3.462523e+00   9.863033e-06   3.680952e-03   1.767522e-09   31721474
  3.475274e+00   9.786040e-06   3.681379e-03   1.746730e-09   31960210
  3.488028e+00   9.714299e-06   3.681819e-03   1.727320e-09   32200582
  3.500782e+00   9.636060e-06   3.681186e-03   1.708589e-09   32429512
  3.513537e+00   9.566483e-06   3.683389e-03   1.689046e-09   32685226
  3.526292e+00   9.493310e-06   3.680900e-03   1.670926e-09   32900830
  3.539043e+00   9.420607e-06   3.680394e-03   1.652254e-09   33135682
  3.551794e+00   9.346583e-06   3.681624e-03   1.633238e-09   33385288
  3.564548e+00   9.277415e-06   3.681804e-03   1.615304e-09   33625706
  3.577303e+00   9.213054e-06   3.682363e-03   1.599244e-09   33873550
  3.590054e+00   9.140911e-06   3.679768e-03   1.581083e-09   34091770
  3.602807e+00   9.071153e-06   3.682821e-03   1.562919e-09   34362160
