# power spectrum of zeta (dimensionless)
# redshift z=5.978097
# k              Pk             sigma(k)       sigma(Pk)      count
  9.713012e-03   2.869637e-18   2.406229e-03   3.418257e-19   146
  2.072432e-02   2.893012e-17   3.528511e-03   1.025271e-18   1042
  3.284725e-02   8.356862e-17   3.519819e-03   1.687982e-18   2698
  4.516399e-02   1.612214e-16   3.571852e-03   2.290705e-18   5206
  5.773095e-02   2.762690e-16   3.674394e-03   3.115730e-18   8752
  7.053126e-02   4.308964e-16   3.718866e-03   3.794521e-18   13258
  8.325183e-02   5.763676e-16   3.633038e-03   4.329293e-18   18070
  9.586244e-02   6.803942e-16   3.646001e-03   4.394986e-18   24050
  1.086731e-01   8.107183e-16   3.743375e-03   4.567795e-18   31720
  1.214673e-01   1.011722e-15   3.655693e-03   5.126898e-18   38722
  1.341503e-01   1.200426e-15   3.664149e-03   5.566973e-18   47398
  1.468737e-01   1.329620e-15   3.676840e-03   5.555009e-18   56986
  1.596345e-01   1.424647e-15   3.691904e-03   5.521273e-18   67552
  1.723758e-01   1.582501e-15   3.670421e-03   5.661079e-18   78310
  1.850973e-01   1.767118e-15   3.676755e-03   5.916909e-18   90514
  1.978078e-01   1.975852e-15   3.661019e-03   6.221115e-18   102938
  2.105352e-01   2.063644e-15   3.688328e-03   6.031419e-18   117412
  2.233038e-01   2.175984e-15   3.687633e-03   5.981722e-18   132106
  2.360543e-01   2.300325e-15   3.674616e-03   5.999470e-18   147154
  2.487863e-01   2.464623e-15   3.675727e-03   6.103088e-18   163522
  2.615607e-01   2.638179e-15   3.698362e-03   6.198647e-18   181804
  2.742948e-01   2.741395e-15   3.657995e-03   6.208997e-18   197722
  2.870326e-01   2.820454e-15   3.695982e-03   6.030303e-18   218866
  2.998036e-01   2.956785e-15   3.677083e-03   6.067628e-18   237542
  3.125403e-01   3.080861e-15   3.676719e-03   6.071706e-18   258136
  3.252883e-01   3.215843e-15   3.682574e-03   6.090147e-18   280066
  3.380302e-01   3.300388e-15   3.674707e-03   6.025499e-18   301774
  3.507809e-01   3.385023e-15   3.685866e-03   5.918623e-18   326050
  3.635453e-01   3.489427e-15   3.682723e-03   5.919908e-18   349792
  3.763059e-01   3.595079e-15   3.686387e-03   5.886771e-18   375154
  3.890549e-01   3.694413e-15   3.673994e-03   5.873797e-18   399742
  4.017814e-01   3.798158e-15   3.673301e-03   5.831774e-18   426266
  4.145262e-01   3.852557e-15   3.683104e-03   5.721745e-18   454960
  4.272780e-01   3.934760e-15   3.679614e-03   5.666568e-18   482734
  4.400302e-01   4.020987e-15   3.684412e-03   5.623533e-18   512746
  4.527916e-01   4.099907e-15   3.682552e-03   5.564884e-18   542746
  4.655520e-01   4.145427e-15   3.684426e-03   5.478213e-18   573952
  4.783045e-01   4.206114e-15   3.678870e-03   5.438328e-18   604918
  4.910489e-01   4.282063e-15   3.679488e-03   5.372082e-18   637666
  5.038054e-01   4.326719e-15   3.685840e-03   5.268791e-18   672482
  5.165640e-01   4.401466e-15   3.679909e-03   5.242957e-18   705748
  5.293052e-01   4.441334e-15   3.678052e-03   5.148061e-18   740482
  5.420630e-01   4.478824e-15   3.688653e-03   5.063030e-18   779026
  5.548129e-01   4.512062e-15   3.672495e-03   5.001726e-18   812614
  5.675646e-01   4.555954e-15   3.688923e-03   4.931782e-18   854200
  5.803275e-01   4.592486e-15   3.679836e-03   4.870209e-18   890746
  5.930743e-01   4.630736e-15   3.680017e-03   4.796113e-18   930394
  6.058234e-01   4.666159e-15   3.680076e-03   4.738922e-18   970982
  6.185756e-01   4.690832e-15   3.681715e-03   4.660699e-18   1012600
  6.313355e-01   4.718288e-15   3.685773e-03   4.599034e-18   1055890
  6.440885e-01   4.738917e-15   3.677546e-03   4.537966e-18   1096630
  6.568331e-01   4.742344e-15   3.679931e-03   4.438604e-18   1141378
  6.695858e-01   4.756692e-15   3.681602e-03   4.373386e-18   1186552
  6.823378e-01   4.778332e-15   3.681238e-03   4.313696e-18   1231798
  6.950926e-01   4.775459e-15   3.683520e-03   4.234832e-18   1279234
  7.078494e-01   4.788485e-15   3.681308e-03   4.165458e-18   1325906
  7.206034e-01   4.792734e-15   3.681998e-03   4.091672e-18   1374352
  7.333523e-01   4.790303e-15   3.678754e-03   4.016182e-18   1421950
  7.460986e-01   4.804617e-15   3.681438e-03   3.962065e-18   1472962
  7.588478e-01   4.791322e-15   3.678790e-03   3.884750e-18   1522954
  7.715908e-01   4.782171e-15   3.677970e-03   3.809272e-18   1573804
  7.843534e-01   4.774349e-15   3.691683e-03   3.735126e-18   1632274
  7.971185e-01   4.762449e-15   3.678939e-03   3.675894e-18   1680226
  8.098559e-01   4.746556e-15   3.674931e-03   3.616727e-18   1732682
  8.226044e-01   4.725751e-15   3.684362e-03   3.527343e-18   1792204
  8.353683e-01   4.718368e-15   3.685360e-03   3.468584e-18   1848298
  8.481180e-01   4.698528e-15   3.676906e-03   3.411909e-18   1901050
  8.608642e-01   4.675370e-15   3.681435e-03   3.341765e-18   1961326
  8.736200e-01   4.651022e-15   3.682643e-03   3.280339e-18   2020312
  8.863805e-01   4.630921e-15   3.684838e-03   3.214557e-18   2080930
  8.991420e-01   4.601532e-15   3.683140e-03   3.142932e-18   2140390
  9.118910e-01   4.575300e-15   3.677128e-03   3.093894e-18   2198162
  9.246418e-01   4.545426e-15   3.683722e-03   3.022422e-18   2263864
  9.374012e-01   4.517626e-15   3.683606e-03   2.965713e-18   2326426
  9.501557e-01   4.487909e-15   3.680653e-03   2.907485e-18   2388550
  9.629062e-01   4.446387e-15   3.680356e-03   2.835714e-18   2453098
  9.756546e-01   4.411176e-15   3.679357e-03   2.782224e-18   2517592
  9.884059e-01   4.379821e-15   3.683066e-03   2.727984e-18   2586070
  1.001159e+00   4.342212e-15   3.680738e-03   2.667745e-18   2651842
  1.013911e+00   4.307323e-15   3.680987e-03   2.608853e-18   2720330
  1.026668e+00   4.269146e-15   3.684024e-03   2.559593e-18   2791156
  1.039424e+00   4.232337e-15   3.681208e-03   2.505442e-18   2858554
  1.052176e+00   4.188078e-15   3.681647e-03   2.447233e-18   2929594
  1.064923e+00   4.150214e-15   3.678395e-03   2.394515e-18   2998762
  1.077674e+00   4.107329e-15   3.682468e-03   2.345359e-18   3074188
  1.090422e+00   4.066997e-15   3.678360e-03   2.295689e-18   3143482
  1.103180e+00   4.017751e-15   3.687908e-03   2.237804e-18   3226186
  1.115936e+00   3.981070e-15   3.676634e-03   2.196027e-18   3291158
  1.128688e+00   3.934666e-15   3.685737e-03   2.141879e-18   3375112
  1.141448e+00   3.890011e-15   3.681431e-03   2.095676e-18   3447658
  1.154199e+00   3.846092e-15   3.680732e-03   2.048330e-18   3524626
  1.166950e+00   3.799592e-15   3.680340e-03   2.003267e-18   3602998
  1.179695e+00   3.754989e-15   3.677316e-03   1.959636e-18   3678592
  1.192442e+00   3.709465e-15   3.682841e-03   1.912360e-18   3764122
  1.205202e+00   3.660887e-15   3.684112e-03   1.867837e-18   3846598
  1.217954e+00   3.617211e-15   3.678173e-03   1.824829e-18   3922250
  1.230710e+00   3.564123e-15   3.685590e-03   1.778898e-18   4013032
  1.243470e+00   3.523183e-15   3.681062e-03   1.743346e-18   4091182
  1.256219e+00   3.473499e-15   3.679790e-03   1.703443e-18   4174282
  1.268971e+00   3.429302e-15   3.681900e-03   1.661819e-18   4261978
  1.281726e+00   3.380825e-15   3.682600e-03   1.621337e-18   4348624
  1.294477e+00   3.339066e-15   3.679148e-03   1.587263e-18   4431430
  1.307227e+00   3.286758e-15   3.682586e-03   1.546842e-18   4523290
  1.319983e+00   3.243172e-15   3.681902e-03   1.510811e-18   4611386
  1.332735e+00   3.199940e-15   3.680296e-03   1.477126e-18   4698814
  1.345489e+00   3.152062e-15   3.683391e-03   1.441770e-18   4792984
  1.358246e+00   3.109774e-15   3.682510e-03   1.407665e-18   4883194
  1.370998e+00   3.059368e-15   3.679847e-03   1.373312e-18   4971694
  1.383751e+00   3.013829e-15   3.683258e-03   1.341116e-18   5069434
  1.396503e+00   2.973622e-15   3.679348e-03   1.310555e-18   5157736
  1.409253e+00   2.927129e-15   3.682013e-03   1.278359e-18   5256202
  1.422008e+00   2.883355e-15   3.682033e-03   1.248109e-18   5351990
  1.434759e+00   2.839386e-15   3.679659e-03   1.218701e-18   5444914
  1.447515e+00   2.794616e-15   3.684860e-03   1.186434e-18   5550088
  1.460276e+00   2.753597e-15   3.682696e-03   1.160370e-18   5644774
  1.473027e+00   2.713068e-15   3.679557e-03   1.133924e-18   5739034
  1.485777e+00   2.668720e-15   3.680933e-03   1.105175e-18   5841154
  1.498530e+00   2.626966e-15   3.681993e-03   1.078615e-18   5943448
  1.511286e+00   2.587941e-15   3.682434e-03   1.053965e-18   6045670
  1.524036e+00   2.547356e-15   3.679211e-03   1.028389e-18   6142586
  1.536786e+00   2.504847e-15   3.681853e-03   1.003197e-18   6250738
  1.549543e+00   2.467631e-15   3.683337e-03   9.794732e-19   6357172
  1.562298e+00   2.427118e-15   3.681419e-03   9.564593e-19   6458506
  1.575052e+00   2.388399e-15   3.682170e-03   9.334628e-19   6566290
  1.587803e+00   2.349097e-15   3.679052e-03   9.110743e-19   6667414
  1.600551e+00   2.309880e-15   3.681081e-03   8.892211e-19   6778336
  1.613305e+00   2.274547e-15   3.683166e-03   8.678972e-19   6890218
  1.626056e+00   2.239323e-15   3.679040e-03   8.484536e-19   6992306
  1.638811e+00   2.201623e-15   3.684406e-03   8.271038e-19   7113454
  1.651568e+00   2.168085e-15   3.680582e-03   8.084066e-19   7216216
  1.664317e+00   2.131306e-15   3.680762e-03   7.879147e-19   7328218
  1.677070e+00   2.097048e-15   3.682190e-03   7.701064e-19   7444414
  1.689821e+00   2.065259e-15   3.679673e-03   7.536158e-19   7553290
  1.702576e+00   2.028044e-15   3.684026e-03   7.334524e-19   7676368
  1.715331e+00   1.995753e-15   3.680267e-03   7.169261e-19   7783150
  1.728082e+00   1.964632e-15   3.682357e-03   7.000756e-19   7904570
  1.740836e+00   1.929123e-15   3.680236e-03   6.833874e-19   8017570
  1.753592e+00   1.900473e-15   3.684218e-03   6.673722e-19   8143840
  1.766349e+00   1.868057e-15   3.680993e-03   6.516033e-19   8255134
  1.779097e+00   1.838536e-15   3.679373e-03   6.367241e-19   8371450
  1.791848e+00   1.808009e-15   3.682049e-03   6.214789e-19   8498578
  1.804607e+00   1.780357e-15   3.683747e-03   6.074703e-19   8623180
  1.817364e+00   1.749954e-15   3.682371e-03   5.929717e-19   8742034
  1.830116e+00   1.720647e-15   3.679631e-03   5.796729e-19   8859194
  1.842864e+00   1.693862e-15   3.680027e-03   5.668134e-19   8984386
  1.855615e+00   1.667513e-15   3.681221e-03   5.538461e-19   9111652
  1.868371e+00   1.638222e-15   3.683946e-03   5.401840e-19   9243322
  1.881126e+00   1.613348e-15   3.680271e-03   5.287235e-19   9361378
  1.893877e+00   1.586992e-15   3.681448e-03   5.167557e-19   9491998
  1.906629e+00   1.561214e-15   3.680822e-03   5.049920e-19   9618016
  1.919381e+00   1.536502e-15   3.682003e-03   4.936789e-19   9750178
  1.932133e+00   1.511215e-15   3.680253e-03   4.826214e-19   9875558
  1.944887e+00   1.486729e-15   3.683525e-03   4.713261e-19   10015834
  1.957639e+00   1.463085e-15   3.678626e-03   4.608989e-19   10133344
  1.970392e+00   1.441348e-15   3.684706e-03   4.515192e-19   10282522
  1.983150e+00   1.418278e-15   3.681133e-03   4.411352e-19   10406974
  1.995898e+00   1.395577e-15   3.678810e-03   4.311583e-19   10534378
  2.008651e+00   1.373802e-15   3.684003e-03   4.219083e-19   10684456
  2.021409e+00   1.351935e-15   3.681823e-03   4.127654e-19   10813894
  2.034159e+00   1.330670e-15   3.679680e-03   4.036897e-19   10944626
  2.046911e+00   1.310788e-15   3.682687e-03   3.951120e-19   11091802
  2.059666e+00   1.289061e-15   3.681058e-03   3.862180e-19   11224756
  2.072419e+00   1.268840e-15   3.682125e-03   3.781031e-19   11367730
  2.085174e+00   1.250050e-15   3.681936e-03   3.700427e-19   11507890
  2.097925e+00   1.230692e-15   3.679320e-03   3.621963e-19   11640658
  2.110678e+00   1.211328e-15   3.683383e-03   3.542385e-19   11795380
  2.123435e+00   1.192611e-15   3.682010e-03   3.465241e-19   11933434
  2.136188e+00   1.174515e-15   3.681227e-03   3.395004e-19   12074954
  2.148943e+00   1.156714e-15   3.682833e-03   3.324847e-19   12225142
  2.161693e+00   1.138712e-15   3.678591e-03   3.256623e-19   12356104
  2.174441e+00   1.122804e-15   3.681911e-03   3.190498e-19   12513442
  2.187198e+00   1.104384e-15   3.683046e-03   3.118067e-19   12664810
  2.199955e+00   1.088962e-15   3.682461e-03   3.056158e-19   12811246
  2.212709e+00   1.071633e-15   3.680738e-03   2.994335e-19   12953536
  2.225459e+00   1.056221e-15   3.681278e-03   2.934451e-19   13105042
  2.238213e+00   1.039935e-15   3.681995e-03   2.870785e-19   13258670
  2.250966e+00   1.025014e-15   3.681453e-03   2.814381e-19   13408738
  2.263720e+00   1.009917e-15   3.681812e-03   2.759433e-19   13562320
  2.276472e+00   9.947450e-16   3.680281e-03   2.701309e-19   13709062
  2.289223e+00   9.800029e-16   3.682002e-03   2.646949e-19   13870258
  2.301982e+00   9.666861e-16   3.683866e-03   2.595948e-19   14032714
  2.314735e+00   9.517865e-16   3.678901e-03   2.544762e-19   14169232
  2.327485e+00   9.384122e-16   3.682472e-03   2.493254e-19   14339422
  2.340238e+00   9.240749e-16   3.680575e-03   2.444226e-19   14489330
  2.352991e+00   9.115674e-16   3.682051e-03   2.397793e-19   14654458
  2.365744e+00   8.979528e-16   3.680808e-03   2.351585e-19   14808292
  2.378495e+00   8.858552e-16   3.681362e-03   2.305963e-19   14970130
  2.391248e+00   8.729933e-16   3.681409e-03   2.262352e-19   15131626
  2.403999e+00   8.597813e-16   3.680405e-03   2.214073e-19   15289198
  2.416755e+00   8.474750e-16   3.683835e-03   2.171200e-19   15466552
  2.429511e+00   8.360794e-16   3.680792e-03   2.130450e-19   15616714
  2.442261e+00   8.246148e-16   3.680631e-03   2.091575e-19   15780506
  2.455014e+00   8.123541e-16   3.682312e-03   2.049012e-19   15953542
  2.467771e+00   8.009685e-16   3.682809e-03   2.010343e-19   16121296
  2.480521e+00   7.898583e-16   3.678892e-03   1.973764e-19   16270762
  2.493272e+00   7.788241e-16   3.683074e-03   1.936008e-19   16457182
  2.506029e+00   7.682917e-16   3.682337e-03   1.901068e-19   16623562
  2.518783e+00   7.574996e-16   3.680725e-03   1.865754e-19   16785784
  2.531534e+00   7.468321e-16   3.681653e-03   1.829512e-19   16959370
  2.544288e+00   7.369263e-16   3.682022e-03   1.796711e-19   17132774
  2.557041e+00   7.270207e-16   3.680981e-03   1.763245e-19   17300602
  2.569795e+00   7.170383e-16   3.682396e-03   1.730738e-19   17480656
  2.582549e+00   7.068736e-16   3.681028e-03   1.698364e-19   17647558
  2.595301e+00   6.973991e-16   3.681358e-03   1.667401e-19   17823778
  2.608054e+00   6.879636e-16   3.681613e-03   1.636996e-19   18001594
  2.620806e+00   6.788040e-16   3.680526e-03   1.607929e-19   18172300
  2.633559e+00   6.699047e-16   3.682066e-03   1.579499e-19   18356770
  2.646316e+00   6.605926e-16   3.683321e-03   1.550657e-19   18541082
  2.659073e+00   6.520150e-16   3.681934e-03   1.522633e-19   18713914
  2.671823e+00   6.431963e-16   3.679083e-03   1.496143e-19   18879742
  2.684574e+00   6.350568e-16   3.682617e-03   1.470133e-19   19077592
  2.697329e+00   6.264644e-16   3.681921e-03   1.442956e-19   19255474
  2.710083e+00   6.181859e-16   3.681561e-03   1.418005e-19   19436278
  2.722832e+00   6.099267e-16   3.678954e-03   1.393494e-19   19605994
  2.735585e+00   6.019246e-16   3.684099e-03   1.367492e-19   19817344
  2.748342e+00   5.943890e-16   3.681109e-03   1.345163e-19   19985702
  2.761094e+00   5.865725e-16   3.681644e-03   1.321354e-19   20175730
  2.773845e+00   5.784668e-16   3.679912e-03   1.297071e-19   20352682
  2.786598e+00   5.714036e-16   3.683498e-03   1.276164e-19   20559616
  2.799356e+00   5.637699e-16   3.682280e-03   1.253382e-19   20741518
  2.812105e+00   5.566812e-16   3.678894e-03   1.233619e-19   20912026
  2.824855e+00   5.494340e-16   3.682015e-03   1.210363e-19   21121018
  2.837610e+00   5.428294e-16   3.681802e-03   1.191533e-19   21310012
  2.850362e+00   5.356704e-16   3.680813e-03   1.171013e-19   21496154
  2.863118e+00   5.289334e-16   3.683473e-03   1.150802e-19   21705946
  2.875873e+00   5.221447e-16   3.680669e-03   1.131465e-19   21882562
  2.888626e+00   5.155746e-16   3.682162e-03   1.112467e-19   22085428
  2.901384e+00   5.086628e-16   3.683214e-03   1.092966e-19   22287106
  2.914134e+00   5.024944e-16   3.678437e-03   1.075731e-19   22455010
  2.926883e+00   4.964943e-16   3.681607e-03   1.058488e-19   22671694
  2.939638e+00   4.899016e-16   3.682507e-03   1.039246e-19   22874368
  2.952394e+00   4.839368e-16   3.682002e-03   1.023157e-19   23070146
  2.965147e+00   4.779316e-16   3.681033e-03   1.006316e-19   23264038
  2.977898e+00   4.718254e-16   3.680981e-03   9.893218e-20   23464210
  2.990653e+00   4.663406e-16   3.683188e-03   9.735146e-20   23679208
  3.003408e+00   4.603001e-16   3.681184e-03   9.580213e-20   23868658
  3.016160e+00   4.546410e-16   3.680900e-03   9.413510e-20   24070582
  3.028912e+00   4.490245e-16   3.681593e-03   9.271417e-20   24278842
  3.041665e+00   4.436696e-16   3.681417e-03   9.118950e-20   24482272
  3.054418e+00   4.382570e-16   3.681719e-03   8.972749e-20   24689510
  3.067171e+00   4.330148e-16   3.681372e-03   8.828125e-20   24894634
  3.079925e+00   4.280094e-16   3.682228e-03   8.692506e-20   25108474
  3.092680e+00   4.224941e-16   3.681825e-03   8.551161e-20   25313116
  3.105433e+00   4.174458e-16   3.680868e-03   8.412242e-20   25515970
  3.118184e+00   4.124040e-16   3.681155e-03   8.282264e-20   25727962
  3.130938e+00   4.075044e-16   3.682510e-03   8.151151e-20   25948954
  3.143694e+00   4.029265e-16   3.682026e-03   8.028100e-20   26157220
  3.156445e+00   3.979353e-16   3.679581e-03   7.903232e-20   26351546
  3.169196e+00   3.931893e-16   3.682249e-03   7.775684e-20   26585314
  3.181952e+00   3.886365e-16   3.682365e-03   7.655133e-20   26800630
  3.194706e+00   3.839369e-16   3.680714e-03   7.536474e-20   27003376
  3.207455e+00   3.793343e-16   3.679962e-03   7.418442e-20   27213202
  3.220208e+00   3.750736e-16   3.683357e-03   7.309436e-20   27455194
  3.232966e+00   3.706029e-16   3.682253e-03   7.197325e-20   27666070
  3.245719e+00   3.663138e-16   3.680401e-03   7.088000e-20   27870280
  3.258468e+00   3.621788e-16   3.680260e-03   6.983793e-20   28088090
  3.271220e+00   3.579013e-16   3.682540e-03   6.874895e-20   28326262
  3.283977e+00   3.537013e-16   3.682410e-03   6.767023e-20   28546906
  3.296732e+00   3.496850e-16   3.681571e-03   6.668146e-20   28762552
  3.309484e+00   3.455835e-16   3.681027e-03   6.568346e-20   28979734
  3.322237e+00   3.415875e-16   3.681948e-03   6.469975e-20   29211106
  3.334990e+00   3.378100e-16   3.681286e-03   6.374327e-20   29431738
  3.347741e+00   3.340510e-16   3.680281e-03   6.284667e-20   29648776
  3.360493e+00   3.302059e-16   3.682059e-03   6.189998e-20   29888654
  3.373249e+00   3.261683e-16   3.682995e-03   6.090497e-20   30123490
  3.386003e+00   3.225599e-16   3.680742e-03   6.004893e-20   30334570
  3.398755e+00   3.190437e-16   3.681166e-03   5.921035e-20   30566524
  3.411507e+00   3.155875e-16   3.681508e-03   5.838579e-20   30798370
  3.424265e+00   3.120091e-16   3.684101e-03   5.748156e-20   31052026
  3.437018e+00   3.084665e-16   3.679094e-03   5.667530e-20   31241782
  3.449769e+00   3.050453e-16   3.682408e-03   5.580303e-20   31502128
  3.462523e+00   3.016590e-16   3.680952e-03   5.507499e-20   31721474
  3.475274e+00   2.982162e-16   3.681379e-03   5.420683e-20   31960210
  3.488028e+00   2.948944e-16   3.681819e-03   5.344631e-20   32200582
  3.500782e+00   2.916234e-16   3.681186e-03   5.270268e-20   32429512
  3.513537e+00   2.885828e-16   3.683389e-03   5.198549e-20   32685226
  3.526292e+00   2.853714e-16   3.680900e-03   5.122731e-20   32900830
  3.539043e+00   2.823398e-16   3.680394e-03   5.053495e-20   33135682
  3.551794e+00   2.791698e-16   3.681624e-03   4.978721e-20   33385288
  3.564548e+00   2.762355e-16   3.681804e-03   4.912856e-20   33625706
  3.577303e+00   2.731530e-16   3.682363e-03   4.841343e-20   33873550
  3.590054e+00   2.702306e-16   3.679768e-03   4.775451e-20   34091770
