# power spectrum of delta
# redshift z=4.989304
# k              Pk             sigma(k)       sigma(Pk)      count
  9.713012e-03   5.416364e-05   2.406229e-03   6.437715e-06   146
  2.072432e-02   5.425794e-04   3.528511e-03   1.923564e-05   1042
  3.284725e-02   1.564545e-03   3.519819e-03   3.163004e-05   2698
  4.516399e-02   3.018432e-03   3.571852e-03   4.284944e-05   5206
  5.773095e-02   5.173392e-03   3.674394e-03   5.827427e-05   8752
  7.053126e-02   8.070840e-03   3.718866e-03   7.120754e-05   13258
  8.325183e-02   1.082452e-02   3.633038e-03   8.137388e-05   18070
  9.586244e-02   1.281082e-02   3.646001e-03   8.283836e-05   24050
  1.086731e-01   1.532229e-02   3.743375e-03   8.639581e-05   31720
  1.214673e-01   1.914795e-02   3.655693e-03   9.703119e-05   38722
  1.341503e-01   2.276402e-02   3.664149e-03   1.054013e-04   47398
  1.468737e-01   2.534214e-02   3.676840e-03   1.058225e-04   56986
  1.596345e-01   2.735808e-02   3.691904e-03   1.060094e-04   67552
  1.723758e-01   3.051141e-02   3.670421e-03   1.090733e-04   78310
  1.850973e-01   3.421506e-02   3.676755e-03   1.146301e-04   90514
  1.978078e-01   3.840167e-02   3.661019e-03   1.208686e-04   102938
  2.105352e-01   4.036256e-02   3.688328e-03   1.180115e-04   117412
  2.233038e-01   4.288296e-02   3.687633e-03   1.179764e-04   132106
  2.360543e-01   4.567277e-02   3.674616e-03   1.189585e-04   147154
  2.487863e-01   4.923656e-02   3.675727e-03   1.219324e-04   163522
  2.615607e-01   5.308394e-02   3.698362e-03   1.249587e-04   181804
  2.742948e-01   5.555539e-02   3.657995e-03   1.258380e-04   197722
  2.870326e-01   5.770543e-02   3.695982e-03   1.235863e-04   218866
  2.998036e-01   6.095876e-02   3.677083e-03   1.252625e-04   237542
  3.125403e-01   6.394749e-02   3.676719e-03   1.260980e-04   258136
  3.252883e-01   6.722902e-02   3.682574e-03   1.273707e-04   280066
  3.380302e-01   6.972001e-02   3.674707e-03   1.271534e-04   301774
  3.507809e-01   7.225576e-02   3.685866e-03   1.266256e-04   326050
  3.635453e-01   7.532573e-02   3.682723e-03   1.276673e-04   349792
  3.763059e-01   7.830241e-02   3.686387e-03   1.282545e-04   375154
  3.890549e-01   8.131690e-02   3.673994e-03   1.290842e-04   399742
  4.017814e-01   8.435883e-02   3.673301e-03   1.297612e-04   426266
  4.145262e-01   8.642105e-02   3.683104e-03   1.284316e-04   454960
  4.272780e-01   8.947695e-02   3.679614e-03   1.287996e-04   482734
  4.400302e-01   9.243886e-02   3.684412e-03   1.292410e-04   512746
  4.527916e-01   9.511795e-02   3.682552e-03   1.292680e-04   542746
  4.655520e-01   9.754342e-02   3.684426e-03   1.289941e-04   573952
  4.783045e-01   1.001991e-01   3.678870e-03   1.293714e-04   604918
  4.910489e-01   1.032521e-01   3.679488e-03   1.295708e-04   637666
  5.038054e-01   1.058041e-01   3.685840e-03   1.289325e-04   672482
  5.165640e-01   1.088734e-01   3.679909e-03   1.299395e-04   705748
  5.293052e-01   1.113366e-01   3.678052e-03   1.291776e-04   740482
  5.420630e-01   1.136817e-01   3.688653e-03   1.283916e-04   779026
  5.548129e-01   1.163051e-01   3.672495e-03   1.288696e-04   812614
  5.675646e-01   1.188051e-01   3.688923e-03   1.285648e-04   854200
  5.803275e-01   1.214111e-01   3.679836e-03   1.286488e-04   890746
  5.930743e-01   1.241867e-01   3.680017e-03   1.288001e-04   930394
  6.058234e-01   1.268679e-01   3.680076e-03   1.287096e-04   970982
  6.185756e-01   1.295184e-01   3.681715e-03   1.289198e-04   1012600
  6.313355e-01   1.322987e-01   3.685773e-03   1.289075e-04   1055890
  6.440885e-01   1.348620e-01   3.677546e-03   1.289630e-04   1096630
  6.568331e-01   1.370180e-01   3.679931e-03   1.281553e-04   1141378
  6.695858e-01   1.395859e-01   3.681602e-03   1.282980e-04   1186552
  6.823378e-01   1.426173e-01   3.681238e-03   1.287242e-04   1231798
  6.950926e-01   1.447334e-01   3.683520e-03   1.283582e-04   1279234
  7.078494e-01   1.473686e-01   3.681308e-03   1.278608e-04   1325906
  7.206034e-01   1.498147e-01   3.681998e-03   1.277404e-04   1374352
  7.333523e-01   1.526834e-01   3.678754e-03   1.278785e-04   1421950
  7.460986e-01   1.552198e-01   3.681438e-03   1.278152e-04   1472962
  7.588478e-01   1.577803e-01   3.678790e-03   1.277184e-04   1522954
  7.715908e-01   1.603806e-01   3.677970e-03   1.277405e-04   1573804
  7.843534e-01   1.625396e-01   3.691683e-03   1.272214e-04   1632274
  7.971185e-01   1.649607e-01   3.678939e-03   1.273789e-04   1680226
  8.098559e-01   1.674454e-01   3.674931e-03   1.273020e-04   1732682
  8.226044e-01   1.697528e-01   3.684362e-03   1.268390e-04   1792204
  8.353683e-01   1.724454e-01   3.685360e-03   1.268967e-04   1848298
  8.481180e-01   1.749509e-01   3.676906e-03   1.270711e-04   1901050
  8.608642e-01   1.772954e-01   3.681435e-03   1.267298e-04   1961326
  8.736200e-01   1.801208e-01   3.682643e-03   1.268102e-04   2020312
  8.863805e-01   1.824472e-01   3.684838e-03   1.267132e-04   2080930
  8.991420e-01   1.847854e-01   3.683140e-03   1.262696e-04   2140390
  9.118910e-01   1.871620e-01   3.677128e-03   1.262903e-04   2198162
  9.246418e-01   1.896363e-01   3.683722e-03   1.261189e-04   2263864
  9.374012e-01   1.920086e-01   3.683606e-03   1.259790e-04   2326426
  9.501557e-01   1.948498e-01   3.680653e-03   1.261928e-04   2388550
  9.629062e-01   1.968468e-01   3.680356e-03   1.256319e-04   2453098
  9.756546e-01   1.992626e-01   3.679357e-03   1.255554e-04   2517592
  9.884059e-01   2.015240e-01   3.683066e-03   1.255060e-04   2586070
  1.001159e+00   2.037504e-01   3.680738e-03   1.251399e-04   2651842
  1.013911e+00   2.067079e-01   3.680987e-03   1.254938e-04   2720330
  1.026668e+00   2.088871e-01   3.684024e-03   1.250863e-04   2791156
  1.039424e+00   2.115461e-01   3.681208e-03   1.251460e-04   2858554
  1.052176e+00   2.138083e-01   3.681647e-03   1.249225e-04   2929594
  1.064923e+00   2.165599e-01   3.678395e-03   1.249742e-04   2998762
  1.077674e+00   2.187728e-01   3.682468e-03   1.248215e-04   3074188
  1.090422e+00   2.210715e-01   3.678360e-03   1.248417e-04   3143482
  1.103180e+00   2.229075e-01   3.687908e-03   1.241190e-04   3226186
  1.115936e+00   2.258052e-01   3.676634e-03   1.243912e-04   3291158
  1.128688e+00   2.280148e-01   3.685737e-03   1.240918e-04   3375112
  1.141448e+00   2.300547e-01   3.681431e-03   1.238545e-04   3447658
  1.154199e+00   2.328017e-01   3.680732e-03   1.240326e-04   3524626
  1.166950e+00   2.350299e-01   3.680340e-03   1.238606e-04   3602998
  1.179695e+00   2.373730e-01   3.677316e-03   1.239183e-04   3678592
  1.192442e+00   2.398165e-01   3.682841e-03   1.237007e-04   3764122
  1.205202e+00   2.418249e-01   3.684112e-03   1.234635e-04   3846598
  1.217954e+00   2.443706e-01   3.678173e-03   1.233425e-04   3922250
  1.230710e+00   2.463804e-01   3.685590e-03   1.229373e-04   4013032
  1.243470e+00   2.489424e-01   3.681062e-03   1.231633e-04   4091182
  1.256219e+00   2.509774e-01   3.679790e-03   1.229041e-04   4174282
  1.268971e+00   2.535023e-01   3.681900e-03   1.229015e-04   4261978
  1.281726e+00   2.554816e-01   3.682600e-03   1.226716e-04   4348624
  1.294477e+00   2.582839e-01   3.679148e-03   1.227976e-04   4431430
  1.307227e+00   2.598023e-01   3.682586e-03   1.222993e-04   4523290
  1.319983e+00   2.623557e-01   3.681902e-03   1.222761e-04   4611386
  1.332735e+00   2.649422e-01   3.680296e-03   1.221549e-04   4698814
  1.345489e+00   2.668270e-01   3.683391e-03   1.220179e-04   4792984
  1.358246e+00   2.695357e-01   3.682510e-03   1.218435e-04   4883194
  1.370998e+00   2.714341e-01   3.679847e-03   1.217339e-04   4971694
  1.383751e+00   2.736920e-01   3.683258e-03   1.217175e-04   5069434
  1.396503e+00   2.759910e-01   3.679348e-03   1.214933e-04   5157736
  1.409253e+00   2.781794e-01   3.682013e-03   1.214611e-04   5256202
  1.422008e+00   2.806246e-01   3.682033e-03   1.213538e-04   5351990
  1.434759e+00   2.826982e-01   3.679659e-03   1.214322e-04   5444914
  1.447515e+00   2.846338e-01   3.684860e-03   1.208664e-04   5550088
  1.460276e+00   2.869952e-01   3.682696e-03   1.208881e-04   5644774
  1.473027e+00   2.892028e-01   3.679557e-03   1.209461e-04   5739034
  1.485777e+00   2.914189e-01   3.680933e-03   1.206708e-04   5841154
  1.498530e+00   2.935574e-01   3.681993e-03   1.205941e-04   5943448
  1.511286e+00   2.960535e-01   3.682434e-03   1.205475e-04   6045670
  1.524036e+00   2.977555e-01   3.679211e-03   1.202072e-04   6142586
  1.536786e+00   3.002109e-01   3.681853e-03   1.202119e-04   6250738
  1.549543e+00   3.024598e-01   3.683337e-03   1.199842e-04   6357172
  1.562298e+00   3.047373e-01   3.681419e-03   1.199586e-04   6458506
  1.575052e+00   3.067699e-01   3.682170e-03   1.198239e-04   6566290
  1.587803e+00   3.087912e-01   3.679052e-03   1.196904e-04   6667414
  1.600551e+00   3.108701e-01   3.681081e-03   1.195513e-04   6778336
  1.613305e+00   3.131384e-01   3.683166e-03   1.193279e-04   6890218
  1.626056e+00   3.152953e-01   3.679040e-03   1.193228e-04   6992306
  1.638811e+00   3.172521e-01   3.684406e-03   1.190950e-04   7113454
  1.651568e+00   3.198659e-01   3.680582e-03   1.191120e-04   7216216
  1.664317e+00   3.217960e-01   3.680762e-03   1.189227e-04   7328218
  1.677070e+00   3.237729e-01   3.682190e-03   1.188036e-04   7444414
  1.689821e+00   3.265545e-01   3.679673e-03   1.189382e-04   7553290
  1.702576e+00   3.277509e-01   3.684026e-03   1.183979e-04   7676368
  1.715331e+00   3.301082e-01   3.680267e-03   1.184421e-04   7783150
  1.728082e+00   3.321539e-01   3.682357e-03   1.181785e-04   7904570
  1.740836e+00   3.342357e-01   3.680236e-03   1.181500e-04   8017570
  1.753592e+00   3.364077e-01   3.684218e-03   1.180146e-04   8143840
  1.766349e+00   3.383082e-01   3.680993e-03   1.179150e-04   8255134
  1.779097e+00   3.405519e-01   3.679373e-03   1.177670e-04   8371450
  1.791848e+00   3.423386e-01   3.682049e-03   1.174411e-04   8498578
  1.804607e+00   3.450113e-01   3.683747e-03   1.175875e-04   8623180
  1.817364e+00   3.469145e-01   3.682371e-03   1.173311e-04   8742034
  1.830116e+00   3.488472e-01   3.679631e-03   1.173521e-04   8859194
  1.842864e+00   3.504724e-01   3.680027e-03   1.171422e-04   8984386
  1.855615e+00   3.527790e-01   3.681221e-03   1.170500e-04   9111652
  1.868371e+00   3.544856e-01   3.683946e-03   1.166939e-04   9243322
  1.881126e+00   3.567833e-01   3.680271e-03   1.167776e-04   9361378
  1.893877e+00   3.588375e-01   3.681448e-03   1.167820e-04   9491998
  1.906629e+00   3.606143e-01   3.680822e-03   1.164827e-04   9618016
  1.919381e+00   3.626702e-01   3.682003e-03   1.163667e-04   9750178
  1.932133e+00   3.645594e-01   3.680253e-03   1.162537e-04   9875558
  1.944887e+00   3.664189e-01   3.683525e-03   1.159733e-04   10015834
  1.957639e+00   3.687404e-01   3.678626e-03   1.160343e-04   10133344
  1.970392e+00   3.706983e-01   3.684706e-03   1.158147e-04   10282522
  1.983150e+00   3.722114e-01   3.681133e-03   1.155637e-04   10406974
  1.995898e+00   3.750125e-01   3.678810e-03   1.157445e-04   10534378
  2.008651e+00   3.766144e-01   3.684003e-03   1.154531e-04   10684456
  2.021409e+00   3.784929e-01   3.681823e-03   1.152981e-04   10813894
  2.034159e+00   3.805943e-01   3.679680e-03   1.151229e-04   10944626
  2.046911e+00   3.825537e-01   3.682687e-03   1.149401e-04   11091802
  2.059666e+00   3.842839e-01   3.681058e-03   1.148597e-04   11224756
  2.072419e+00   3.859911e-01   3.682125e-03   1.146170e-04   11367730
  2.085174e+00   3.879825e-01   3.681936e-03   1.145993e-04   11507890
  2.097925e+00   3.899643e-01   3.679320e-03   1.144119e-04   11640658
  2.110678e+00   3.918240e-01   3.683383e-03   1.142617e-04   11795380
  2.123435e+00   3.937774e-01   3.682010e-03   1.143040e-04   11933434
  2.136188e+00   3.953426e-01   3.681227e-03   1.139647e-04   12074954
  2.148943e+00   3.974589e-01   3.682833e-03   1.138931e-04   12225142
  2.161693e+00   3.990519e-01   3.678591e-03   1.137228e-04   12356104
  2.174441e+00   4.012304e-01   3.681911e-03   1.135735e-04   12513442
  2.187198e+00   4.026561e-01   3.683046e-03   1.133678e-04   12664810
  2.199955e+00   4.050431e-01   3.682461e-03   1.134956e-04   12811246
  2.212709e+00   4.068171e-01   3.680738e-03   1.131733e-04   12953536
  2.225459e+00   4.084194e-01   3.681278e-03   1.130732e-04   13105042
  2.238213e+00   4.103506e-01   3.681995e-03   1.128235e-04   13258670
  2.250966e+00   4.123034e-01   3.681453e-03   1.127758e-04   13408738
  2.263720e+00   4.138585e-01   3.681812e-03   1.125695e-04   13562320
  2.276472e+00   4.158411e-01   3.680281e-03   1.125920e-04   13709062
  2.289223e+00   4.178057e-01   3.682002e-03   1.124107e-04   13870258
  2.301982e+00   4.194833e-01   3.683866e-03   1.122283e-04   14032714
  2.314735e+00   4.212794e-01   3.678901e-03   1.121061e-04   14169232
  2.327485e+00   4.234293e-01   3.682472e-03   1.120111e-04   14339422
  2.340238e+00   4.246101e-01   3.680575e-03   1.116795e-04   14489330
  2.352991e+00   4.267430e-01   3.682051e-03   1.117174e-04   14654458
  2.365744e+00   4.282274e-01   3.680808e-03   1.115488e-04   14808292
  2.378495e+00   4.300781e-01   3.681362e-03   1.113832e-04   14970130
  2.391248e+00   4.316382e-01   3.681409e-03   1.112569e-04   15131626
  2.403999e+00   4.334999e-01   3.680405e-03   1.110921e-04   15289198
  2.416755e+00   4.351443e-01   3.683835e-03   1.108582e-04   15466552
  2.429511e+00   4.370556e-01   3.680792e-03   1.108004e-04   15616714
  2.442261e+00   4.388590e-01   3.680631e-03   1.107033e-04   15780506
  2.455014e+00   4.401009e-01   3.682312e-03   1.104287e-04   15953542
  2.467771e+00   4.419164e-01   3.682809e-03   1.103051e-04   16121296
  2.480521e+00   4.438209e-01   3.678892e-03   1.102869e-04   16270762
  2.493272e+00   4.454787e-01   3.683074e-03   1.101012e-04   16457182
  2.506029e+00   4.469892e-01   3.682337e-03   1.099686e-04   16623562
  2.518783e+00   4.485991e-01   3.680725e-03   1.097421e-04   16785784
  2.531534e+00   4.505184e-01   3.681653e-03   1.096855e-04   16959370
  2.544288e+00   4.521536e-01   3.682022e-03   1.095430e-04   17132774
  2.557041e+00   4.537890e-01   3.680981e-03   1.093742e-04   17300602
  2.569795e+00   4.554208e-01   3.682396e-03   1.092154e-04   17480656
  2.582549e+00   4.570319e-01   3.681028e-03   1.090760e-04   17647558
  2.595301e+00   4.586060e-01   3.681358e-03   1.089035e-04   17823778
  2.608054e+00   4.602607e-01   3.681613e-03   1.087392e-04   18001594
  2.620806e+00   4.615633e-01   3.680526e-03   1.085906e-04   18172300
  2.633559e+00   4.637023e-01   3.682066e-03   1.085625e-04   18356770
  2.646316e+00   4.650834e-01   3.683321e-03   1.083463e-04   18541082
  2.659073e+00   4.665553e-01   3.681934e-03   1.081688e-04   18713914
  2.671823e+00   4.681674e-01   3.679083e-03   1.081057e-04   18879742
  2.684574e+00   4.699382e-01   3.682617e-03   1.078595e-04   19077592
  2.697329e+00   4.713894e-01   3.681921e-03   1.077307e-04   19255474
  2.710083e+00   4.729047e-01   3.681561e-03   1.075368e-04   19436278
  2.722832e+00   4.743809e-01   3.678954e-03   1.074362e-04   19605994
  2.735585e+00   4.759678e-01   3.684099e-03   1.072846e-04   19817344
  2.748342e+00   4.774705e-01   3.681109e-03   1.071852e-04   19985702
  2.761094e+00   4.792212e-01   3.681644e-03   1.069932e-04   20175730
  2.773845e+00   4.807890e-01   3.679912e-03   1.068969e-04   20352682
  2.786598e+00   4.821707e-01   3.683498e-03   1.066965e-04   20559616
  2.799356e+00   4.839869e-01   3.682280e-03   1.065831e-04   20741518
  2.812105e+00   4.852659e-01   3.678894e-03   1.064727e-04   20912026
  2.824855e+00   4.866940e-01   3.682015e-03   1.062715e-04   21121018
  2.837610e+00   4.881245e-01   3.681802e-03   1.060719e-04   21310012
  2.850362e+00   4.896167e-01   3.680813e-03   1.059724e-04   21496154
  2.863118e+00   4.910672e-01   3.683473e-03   1.058030e-04   21705946
  2.875873e+00   4.928723e-01   3.680669e-03   1.057414e-04   21882562
  2.888626e+00   4.939846e-01   3.682162e-03   1.055021e-04   22085428
  2.901384e+00   4.953887e-01   3.683214e-03   1.052936e-04   22287106
  2.914134e+00   4.965786e-01   3.678437e-03   1.051352e-04   22455010
  2.926883e+00   4.986027e-01   3.681607e-03   1.051049e-04   22671694
  2.939638e+00   4.997989e-01   3.682507e-03   1.048889e-04   22874368
  2.952394e+00   5.009479e-01   3.682002e-03   1.046964e-04   23070146
  2.965147e+00   5.026171e-01   3.681033e-03   1.046190e-04   23264038
  2.977898e+00   5.039708e-01   3.680981e-03   1.044224e-04   23464210
  2.990653e+00   5.054932e-01   3.683188e-03   1.042693e-04   23679208
  3.003408e+00   5.066850e-01   3.681184e-03   1.040939e-04   23868658
  3.016160e+00   5.080575e-01   3.680900e-03   1.039551e-04   24070582
  3.028912e+00   5.094768e-01   3.681593e-03   1.038228e-04   24278842
  3.041665e+00   5.110482e-01   3.681417e-03   1.036842e-04   24482272
  3.054418e+00   5.122764e-01   3.681719e-03   1.034733e-04   24689510
  3.067171e+00   5.135495e-01   3.681372e-03   1.033344e-04   24894634
  3.079925e+00   5.149973e-01   3.682228e-03   1.032269e-04   25108474
  3.092680e+00   5.163616e-01   3.681825e-03   1.030623e-04   25313116
  3.105433e+00   5.176469e-01   3.680868e-03   1.028863e-04   25515970
  3.118184e+00   5.187130e-01   3.681155e-03   1.026486e-04   25727962
  3.130938e+00   5.204046e-01   3.682510e-03   1.025992e-04   25948954
  3.143694e+00   5.215227e-01   3.682026e-03   1.024081e-04   26157220
  3.156445e+00   5.228683e-01   3.679581e-03   1.023512e-04   26351546
  3.169196e+00   5.242221e-01   3.682249e-03   1.020653e-04   26585314
  3.181952e+00   5.252932e-01   3.682365e-03   1.019322e-04   26800630
  3.194706e+00   5.265119e-01   3.680714e-03   1.017979e-04   27003376
  3.207455e+00   5.280626e-01   3.679962e-03   1.016897e-04   27213202
  3.220208e+00   5.295024e-01   3.683357e-03   1.015441e-04   27455194
  3.232966e+00   5.306167e-01   3.682253e-03   1.013289e-04   27666070
  3.245719e+00   5.313324e-01   3.680401e-03   1.011184e-04   27870280
  3.258468e+00   5.328512e-01   3.680260e-03   1.009857e-04   28088090
  3.271220e+00   5.343043e-01   3.682540e-03   1.008583e-04   28326262
  3.283977e+00   5.353288e-01   3.682410e-03   1.006829e-04   28546906
  3.296732e+00   5.367626e-01   3.681571e-03   1.005823e-04   28762552
  3.309484e+00   5.375564e-01   3.681027e-03   1.003193e-04   28979734
  3.322237e+00   5.388934e-01   3.681948e-03   1.002020e-04   29211106
  3.334990e+00   5.401772e-01   3.681286e-03   1.000570e-04   29431738
  3.347741e+00   5.413058e-01   3.680281e-03   9.993381e-05   29648776
  3.360493e+00   5.427723e-01   3.682059e-03   9.974990e-05   29888654
  3.373249e+00   5.435998e-01   3.682995e-03   9.957449e-05   30123490
  3.386003e+00   5.449290e-01   3.680742e-03   9.946013e-05   30334570
  3.398755e+00   5.459372e-01   3.681166e-03   9.926536e-05   30566524
  3.411507e+00   5.472551e-01   3.681508e-03   9.913990e-05   30798370
  3.424265e+00   5.483801e-01   3.684101e-03   9.890913e-05   31052026
  3.437018e+00   5.495200e-01   3.679094e-03   9.884914e-05   31241782
  3.449769e+00   5.503799e-01   3.682408e-03   9.855379e-05   31502128
  3.462523e+00   5.517795e-01   3.680952e-03   9.850794e-05   31721474
  3.475274e+00   5.528899e-01   3.681379e-03   9.835609e-05   31960210
  3.488028e+00   5.540394e-01   3.681819e-03   9.817039e-05   32200582
  3.500782e+00   5.550106e-01   3.681186e-03   9.802583e-05   32429512
  3.513537e+00   5.564010e-01   3.683389e-03   9.786398e-05   32685226
  3.526292e+00   5.574437e-01   3.680900e-03   9.776931e-05   32900830
  3.539043e+00   5.581653e-01   3.680394e-03   9.753200e-05   33135682
  3.551794e+00   5.595419e-01   3.681624e-03   9.740851e-05   33385288
  3.564548e+00   5.603300e-01   3.681804e-03   9.715684e-05   33625706
  3.577303e+00   5.618621e-01   3.682363e-03   9.711130e-05   33873550
  3.590054e+00   5.627742e-01   3.679768e-03   9.699811e-05   34091770
  3.602807e+00   5.636209e-01   3.682821e-03   9.671553e-05   34362160
