# power spectrum of delta
# redshift z=49.353322
# k              Pk             sigma(k)       sigma(Pk)      count
  9.713012e-03   8.483561e-07   2.406229e-03   9.970704e-08   146
  2.072432e-02   8.015774e-06   3.528511e-03   2.827770e-07   1042
  3.284725e-02   2.287549e-05   3.519819e-03   4.616142e-07   2698
  4.516399e-02   4.397308e-05   3.571852e-03   6.249791e-07   5206
  5.773095e-02   7.532636e-05   3.674394e-03   8.499668e-07   8752
  7.053126e-02   1.175895e-04   3.718866e-03   1.034621e-06   13258
  8.325183e-02   1.573271e-04   3.633038e-03   1.181433e-06   18070
  9.586244e-02   1.859227e-04   3.646001e-03   1.200504e-06   24050
  1.086731e-01   2.218199e-04   3.743375e-03   1.249387e-06   31720
  1.214673e-01   2.776101e-04   3.655693e-03   1.407041e-06   38722
  1.341503e-01   3.303455e-04   3.664149e-03   1.533472e-06   47398
  1.468737e-01   3.666032e-04   3.676840e-03   1.532144e-06   56986
  1.596345e-01   3.933829e-04   3.691904e-03   1.524764e-06   67552
  1.723758e-01   4.385265e-04   3.670421e-03   1.569633e-06   78310
  1.850973e-01   4.913066e-04   3.676755e-03   1.645150e-06   90514
  1.978078e-01   5.516239e-04   3.661019e-03   1.736795e-06   102938
  2.105352e-01   5.783483e-04   3.688328e-03   1.690069e-06   117412
  2.233038e-01   6.117818e-04   3.687633e-03   1.682093e-06   132106
  2.360543e-01   6.494432e-04   3.674616e-03   1.694813e-06   147154
  2.487863e-01   6.990766e-04   3.675727e-03   1.730403e-06   163522
  2.615607e-01   7.515061e-04   3.698362e-03   1.764152e-06   181804
  2.742948e-01   7.852455e-04   3.657995e-03   1.778268e-06   197722
  2.870326e-01   8.116858e-04   3.695982e-03   1.733942e-06   218866
  2.998036e-01   8.556814e-04   3.677083e-03   1.755109e-06   237542
  3.125403e-01   8.973322e-04   3.676719e-03   1.767873e-06   258136
  3.252883e-01   9.423300e-04   3.682574e-03   1.784771e-06   280066
  3.380302e-01   9.733695e-04   3.674707e-03   1.777243e-06   301774
  3.507809e-01   1.004136e-03   3.685866e-03   1.755395e-06   326050
  3.635453e-01   1.040938e-03   3.682723e-03   1.765790e-06   349792
  3.763059e-01   1.080686e-03   3.686387e-03   1.771122e-06   375154
  3.890549e-01   1.118192e-03   3.673994e-03   1.777879e-06   399742
  4.017814e-01   1.158431e-03   3.673301e-03   1.775978e-06   426266
  4.145262e-01   1.185213e-03   3.683104e-03   1.759869e-06   454960
  4.272780e-01   1.218303e-03   3.679614e-03   1.754656e-06   482734
  4.400302e-01   1.254777e-03   3.684412e-03   1.754077e-06   512746
  4.527916e-01   1.291714e-03   3.682552e-03   1.753180e-06   542746
  4.655520e-01   1.316135e-03   3.684426e-03   1.737884e-06   573952
  4.783045e-01   1.347386e-03   3.678870e-03   1.742813e-06   604918
  4.910489e-01   1.383522e-03   3.679488e-03   1.734783e-06   637666
  5.038054e-01   1.410849e-03   3.685840e-03   1.717627e-06   672482
  5.165640e-01   1.448765e-03   3.679909e-03   1.724437e-06   705748
  5.293052e-01   1.476098e-03   3.678052e-03   1.711239e-06   740482
  5.420630e-01   1.504215e-03   3.688653e-03   1.701770e-06   779026
  5.548129e-01   1.530426e-03   3.672495e-03   1.697322e-06   812614
  5.675646e-01   1.561839e-03   3.688923e-03   1.691166e-06   854200
  5.803275e-01   1.593084e-03   3.679836e-03   1.689329e-06   890746
  5.930743e-01   1.622830e-03   3.680017e-03   1.679767e-06   930394
  6.058234e-01   1.653494e-03   3.680076e-03   1.681041e-06   970982
  6.185756e-01   1.681382e-03   3.681715e-03   1.671361e-06   1012600
  6.313355e-01   1.708962e-03   3.685773e-03   1.666269e-06   1055890
  6.440885e-01   1.737263e-03   3.677546e-03   1.666224e-06   1096630
  6.568331e-01   1.760679e-03   3.679931e-03   1.649362e-06   1141378
  6.695858e-01   1.788066e-03   3.681602e-03   1.643436e-06   1186552
  6.823378e-01   1.815902e-03   3.681238e-03   1.638528e-06   1231798
  6.950926e-01   1.840210e-03   3.683520e-03   1.631144e-06   1279234
  7.078494e-01   1.868692e-03   3.681308e-03   1.625400e-06   1325906
  7.206034e-01   1.895756e-03   3.681998e-03   1.619611e-06   1374352
  7.333523e-01   1.918474e-03   3.678754e-03   1.611636e-06   1421950
  7.460986e-01   1.950178e-03   3.681438e-03   1.609043e-06   1472962
  7.588478e-01   1.971509e-03   3.678790e-03   1.599220e-06   1522954
  7.715908e-01   1.994258e-03   3.677970e-03   1.591542e-06   1573804
  7.843534e-01   2.020969e-03   3.691683e-03   1.581985e-06   1632274
  7.971185e-01   2.044922e-03   3.678939e-03   1.577776e-06   1680226
  8.098559e-01   2.067168e-03   3.674931e-03   1.574610e-06   1732682
  8.226044e-01   2.091299e-03   3.684362e-03   1.562302e-06   1792204
  8.353683e-01   2.117885e-03   3.685360e-03   1.557396e-06   1848298
  8.481180e-01   2.140174e-03   3.676906e-03   1.556117e-06   1901050
  8.608642e-01   2.161360e-03   3.681435e-03   1.542832e-06   1961326
  8.736200e-01   2.181993e-03   3.682643e-03   1.538769e-06   2020312
  8.863805e-01   2.209502e-03   3.684838e-03   1.532901e-06   2080930
  8.991420e-01   2.230224e-03   3.683140e-03   1.524825e-06   2140390
  9.118910e-01   2.253991e-03   3.677128e-03   1.523565e-06   2198162
  9.246418e-01   2.274523e-03   3.683722e-03   1.512363e-06   2263864
  9.374012e-01   2.298496e-03   3.683606e-03   1.507113e-06   2326426
  9.501557e-01   2.319394e-03   3.680653e-03   1.500297e-06   2388550
  9.629062e-01   2.337375e-03   3.680356e-03   1.490644e-06   2453098
  9.756546e-01   2.360038e-03   3.679357e-03   1.488075e-06   2517592
  9.884059e-01   2.385882e-03   3.683066e-03   1.487261e-06   2586070
  1.001159e+00   2.403490e-03   3.680738e-03   1.476554e-06   2651842
  1.013911e+00   2.423522e-03   3.680987e-03   1.466052e-06   2720330
  1.026668e+00   2.444461e-03   3.684024e-03   1.465427e-06   2791156
  1.039424e+00   2.465712e-03   3.681208e-03   1.459878e-06   2858554
  1.052176e+00   2.485124e-03   3.681647e-03   1.451529e-06   2929594
  1.064923e+00   2.505436e-03   3.678395e-03   1.446207e-06   2998762
  1.077674e+00   2.523804e-03   3.682468e-03   1.440683e-06   3074188
  1.090422e+00   2.547728e-03   3.678360e-03   1.435988e-06   3143482
  1.103180e+00   2.565646e-03   3.687908e-03   1.427925e-06   3226186
  1.115936e+00   2.583934e-03   3.676634e-03   1.427720e-06   3291158
  1.128688e+00   2.604407e-03   3.685737e-03   1.417620e-06   3375112
  1.141448e+00   2.625443e-03   3.681431e-03   1.414939e-06   3447658
  1.154199e+00   2.642685e-03   3.680732e-03   1.408497e-06   3524626
  1.166950e+00   2.661341e-03   3.680340e-03   1.403766e-06   3602998
  1.179695e+00   2.680086e-03   3.677316e-03   1.397948e-06   3678592
  1.192442e+00   2.697180e-03   3.682841e-03   1.389758e-06   3764122
  1.205202e+00   2.714964e-03   3.684112e-03   1.384788e-06   3846598
  1.217954e+00   2.736744e-03   3.678173e-03   1.380990e-06   3922250
  1.230710e+00   2.752064e-03   3.685590e-03   1.375668e-06   4013032
  1.243470e+00   2.769730e-03   3.681062e-03   1.368126e-06   4091182
  1.256219e+00   2.787714e-03   3.679790e-03   1.366030e-06   4174282
  1.268971e+00   2.805877e-03   3.681900e-03   1.359590e-06   4261978
  1.281726e+00   2.820538e-03   3.682600e-03   1.352214e-06   4348624
  1.294477e+00   2.839787e-03   3.679148e-03   1.348962e-06   4431430
  1.307227e+00   2.854698e-03   3.682586e-03   1.343304e-06   4523290
  1.319983e+00   2.874395e-03   3.681902e-03   1.339439e-06   4611386
  1.332735e+00   2.892598e-03   3.680296e-03   1.335716e-06   4698814
  1.345489e+00   2.909204e-03   3.683391e-03   1.328724e-06   4792984
  1.358246e+00   2.927002e-03   3.682510e-03   1.324199e-06   4883194
  1.370998e+00   2.938164e-03   3.679847e-03   1.318296e-06   4971694
  1.383751e+00   2.954254e-03   3.683258e-03   1.313554e-06   5069434
  1.396503e+00   2.975236e-03   3.679348e-03   1.310428e-06   5157736
  1.409253e+00   2.989999e-03   3.682013e-03   1.306738e-06   5256202
  1.422008e+00   3.004810e-03   3.682033e-03   1.300233e-06   5351990
  1.434759e+00   3.021155e-03   3.679659e-03   1.294697e-06   5444914
  1.447515e+00   3.037218e-03   3.684860e-03   1.288965e-06   5550088
  1.460276e+00   3.054678e-03   3.682696e-03   1.285175e-06   5644774
  1.473027e+00   3.069441e-03   3.679557e-03   1.281656e-06   5739034
  1.485777e+00   3.086227e-03   3.680933e-03   1.277728e-06   5841154
  1.498530e+00   3.099998e-03   3.681993e-03   1.271024e-06   5943448
  1.511286e+00   3.115731e-03   3.682434e-03   1.267109e-06   6045670
  1.524036e+00   3.134164e-03   3.679211e-03   1.264703e-06   6142586
  1.536786e+00   3.146787e-03   3.681853e-03   1.258210e-06   6250738
  1.549543e+00   3.162602e-03   3.683337e-03   1.254795e-06   6357172
  1.562298e+00   3.175970e-03   3.681419e-03   1.249751e-06   6458506
  1.575052e+00   3.193162e-03   3.682170e-03   1.246006e-06   6566290
  1.587803e+00   3.203273e-03   3.679052e-03   1.241260e-06   6667414
  1.600551e+00   3.217901e-03   3.681081e-03   1.235500e-06   6778336
  1.613305e+00   3.236395e-03   3.683166e-03   1.232705e-06   6890218
  1.626056e+00   3.250631e-03   3.679040e-03   1.229849e-06   6992306
  1.638811e+00   3.263901e-03   3.684406e-03   1.225028e-06   7113454
  1.651568e+00   3.279282e-03   3.680582e-03   1.221755e-06   7216216
  1.664317e+00   3.291977e-03   3.680762e-03   1.215822e-06   7328218
  1.677070e+00   3.305868e-03   3.682190e-03   1.212598e-06   7444414
  1.689821e+00   3.318441e-03   3.679673e-03   1.207734e-06   7553290
  1.702576e+00   3.331260e-03   3.684026e-03   1.202074e-06   7676368
  1.715331e+00   3.349010e-03   3.680267e-03   1.201993e-06   7783150
  1.728082e+00   3.359821e-03   3.682357e-03   1.195718e-06   7904570
  1.740836e+00   3.371435e-03   3.680236e-03   1.191870e-06   8017570
  1.753592e+00   3.385930e-03   3.684218e-03   1.187269e-06   8143840
  1.766349e+00   3.400626e-03   3.680993e-03   1.184042e-06   8255134
  1.779097e+00   3.411509e-03   3.679373e-03   1.179783e-06   8371450
  1.791848e+00   3.425247e-03   3.682049e-03   1.176274e-06   8498578
  1.804607e+00   3.439124e-03   3.683747e-03   1.171759e-06   8623180
  1.817364e+00   3.452365e-03   3.682371e-03   1.168579e-06   8742034
  1.830116e+00   3.464617e-03   3.679631e-03   1.164941e-06   8859194
  1.842864e+00   3.476130e-03   3.680027e-03   1.160793e-06   8984386
  1.855615e+00   3.489225e-03   3.681221e-03   1.156890e-06   9111652
  1.868371e+00   3.502811e-03   3.683946e-03   1.152824e-06   9243322
  1.881126e+00   3.513552e-03   3.680271e-03   1.149897e-06   9361378
  1.893877e+00   3.526873e-03   3.681448e-03   1.146536e-06   9491998
  1.906629e+00   3.539412e-03   3.680822e-03   1.142085e-06   9618016
  1.919381e+00   3.552838e-03   3.682003e-03   1.139214e-06   9750178
  1.932133e+00   3.560898e-03   3.680253e-03   1.133454e-06   9875558
  1.944887e+00   3.579657e-03   3.683525e-03   1.131734e-06   10015834
  1.957639e+00   3.584975e-03   3.678626e-03   1.127411e-06   10133344
  1.970392e+00   3.599398e-03   3.684706e-03   1.123600e-06   10282522
  1.983150e+00   3.611490e-03   3.681133e-03   1.120875e-06   10406974
  1.995898e+00   3.619353e-03   3.678810e-03   1.116199e-06   10534378
  2.008651e+00   3.632783e-03   3.684003e-03   1.111515e-06   10684456
  2.021409e+00   3.647878e-03   3.681823e-03   1.109619e-06   10813894
  2.034159e+00   3.656091e-03   3.679680e-03   1.106265e-06   10944626
  2.046911e+00   3.667881e-03   3.682687e-03   1.102902e-06   11091802
  2.059666e+00   3.679614e-03   3.681058e-03   1.099641e-06   11224756
  2.072419e+00   3.688058e-03   3.682125e-03   1.094084e-06   11367730
  2.085174e+00   3.701370e-03   3.681936e-03   1.091710e-06   11507890
  2.097925e+00   3.713983e-03   3.679320e-03   1.089126e-06   11640658
  2.110678e+00   3.724751e-03   3.683383e-03   1.086746e-06   11795380
  2.123435e+00   3.734006e-03   3.682010e-03   1.082048e-06   11933434
  2.136188e+00   3.744221e-03   3.681227e-03   1.078834e-06   12074954
  2.148943e+00   3.757656e-03   3.682833e-03   1.075659e-06   12225142
  2.161693e+00   3.767504e-03   3.678591e-03   1.073298e-06   12356104
  2.174441e+00   3.776760e-03   3.681911e-03   1.068492e-06   12513442
  2.187198e+00   3.789299e-03   3.683046e-03   1.065582e-06   12664810
  2.199955e+00   3.798795e-03   3.682461e-03   1.062511e-06   12811246
  2.212709e+00   3.808261e-03   3.680738e-03   1.058646e-06   12953536
  2.225459e+00   3.820218e-03   3.681278e-03   1.056844e-06   13105042
  2.238213e+00   3.828329e-03   3.681995e-03   1.052110e-06   13258670
  2.250966e+00   3.839695e-03   3.681453e-03   1.049930e-06   13408738
  2.263720e+00   3.850977e-03   3.681812e-03   1.047242e-06   13562320
  2.276472e+00   3.861127e-03   3.680281e-03   1.044445e-06   13709062
  2.289223e+00   3.869977e-03   3.682002e-03   1.039778e-06   13870258
  2.301982e+00   3.879494e-03   3.683866e-03   1.037023e-06   14032714
  2.314735e+00   3.890275e-03   3.678901e-03   1.035308e-06   14169232
  2.327485e+00   3.899833e-03   3.682472e-03   1.031281e-06   14339422
  2.340238e+00   3.910326e-03   3.680575e-03   1.028508e-06   14489330
  2.352991e+00   3.918582e-03   3.682051e-03   1.024836e-06   14654458
  2.365744e+00   3.927840e-03   3.680808e-03   1.022690e-06   14808292
  2.378495e+00   3.938650e-03   3.681362e-03   1.019255e-06   14970130
  2.391248e+00   3.949614e-03   3.681409e-03   1.017026e-06   15131626
  2.403999e+00   3.956961e-03   3.680405e-03   1.013539e-06   15289198
  2.416755e+00   3.969757e-03   3.683835e-03   1.010683e-06   15466552
  2.429511e+00   3.977085e-03   3.680792e-03   1.007935e-06   15616714
  2.442261e+00   3.986907e-03   3.680631e-03   1.005659e-06   15780506
  2.455014e+00   3.994932e-03   3.682312e-03   1.001876e-06   15953542
  2.467771e+00   4.006533e-03   3.682809e-03   9.995029e-07   16121296
  2.480521e+00   4.014990e-03   3.678892e-03   9.972806e-07   16270762
  2.493272e+00   4.021249e-03   3.683074e-03   9.925591e-07   16457182
  2.506029e+00   4.032921e-03   3.682337e-03   9.902150e-07   16623562
  2.518783e+00   4.038267e-03   3.680725e-03   9.868793e-07   16785784
  2.531534e+00   4.051011e-03   3.681653e-03   9.849944e-07   16959370
  2.544288e+00   4.060785e-03   3.682022e-03   9.830184e-07   17132774
  2.557041e+00   4.064946e-03   3.680981e-03   9.792229e-07   17300602
  2.569795e+00   4.071121e-03   3.682396e-03   9.753046e-07   17480656
  2.582549e+00   4.081473e-03   3.681028e-03   9.732741e-07   17647558
  2.595301e+00   4.089950e-03   3.681358e-03   9.704723e-07   17823778
  2.608054e+00   4.103974e-03   3.681613e-03   9.685373e-07   18001594
  2.620806e+00   4.110510e-03   3.680526e-03   9.660503e-07   18172300
  2.633559e+00   4.116706e-03   3.682066e-03   9.631874e-07   18356770
  2.646316e+00   4.125322e-03   3.683321e-03   9.606033e-07   18541082
  2.659073e+00   4.132167e-03   3.681934e-03   9.565424e-07   18713914
  2.671823e+00   4.141377e-03   3.679083e-03   9.553615e-07   18879742
  2.684574e+00   4.150220e-03   3.682617e-03   9.517041e-07   19077592
  2.697329e+00   4.157399e-03   3.681921e-03   9.486311e-07   19255474
  2.710083e+00   4.166059e-03   3.681561e-03   9.462790e-07   19436278
  2.722832e+00   4.173620e-03   3.678954e-03   9.448348e-07   19605994
  2.735585e+00   4.183082e-03   3.684099e-03   9.416684e-07   19817344
  2.748342e+00   4.193724e-03   3.681109e-03   9.394276e-07   19985702
  2.761094e+00   4.196514e-03   3.681644e-03   9.364654e-07   20175730
  2.773845e+00   4.204944e-03   3.679912e-03   9.344113e-07   20352682
  2.786598e+00   4.214482e-03   3.683498e-03   9.316276e-07   20559616
  2.799356e+00   4.220962e-03   3.682280e-03   9.288165e-07   20741518
  2.812105e+00   4.230577e-03   3.678894e-03   9.270988e-07   20912026
  2.824855e+00   4.236836e-03   3.682015e-03   9.238171e-07   21121018
  2.837610e+00   4.243537e-03   3.681802e-03   9.219307e-07   21310012
  2.850362e+00   4.250389e-03   3.680813e-03   9.191083e-07   21496154
  2.863118e+00   4.260088e-03   3.683473e-03   9.168830e-07   21705946
  2.875873e+00   4.266287e-03   3.680669e-03   9.139655e-07   21882562
  2.888626e+00   4.274077e-03   3.682162e-03   9.115931e-07   22085428
  2.901384e+00   4.281168e-03   3.683214e-03   9.091611e-07   22287106
  2.914134e+00   4.287051e-03   3.678437e-03   9.072124e-07   22455010
  2.926883e+00   4.297083e-03   3.681607e-03   9.053043e-07   22671694
  2.939638e+00   4.300460e-03   3.682507e-03   9.014059e-07   22874368
  2.952394e+00   4.310954e-03   3.682002e-03   9.007154e-07   23070146
  2.965147e+00   4.316853e-03   3.681033e-03   8.979785e-07   23264038
  2.977898e+00   4.323270e-03   3.680981e-03   8.951264e-07   23464210
  2.990653e+00   4.330127e-03   3.683188e-03   8.924723e-07   23679208
  3.003408e+00   4.337869e-03   3.681184e-03   8.909004e-07   23868658
  3.016160e+00   4.341500e-03   3.680900e-03   8.878519e-07   24070582
  3.028912e+00   4.351438e-03   3.681593e-03   8.855657e-07   24278842
  3.041665e+00   4.356092e-03   3.681417e-03   8.833303e-07   24482272
  3.054418e+00   4.362521e-03   3.681719e-03   8.809860e-07   24689510
  3.067171e+00   4.371326e-03   3.681372e-03   8.789903e-07   24894634
  3.079925e+00   4.378742e-03   3.682228e-03   8.768632e-07   25108474
  3.092680e+00   4.383532e-03   3.681825e-03   8.744053e-07   25313116
  3.105433e+00   4.390130e-03   3.680868e-03   8.719250e-07   25515970
  3.118184e+00   4.397906e-03   3.681155e-03   8.700786e-07   25727962
  3.130938e+00   4.401298e-03   3.682510e-03   8.668925e-07   25948954
  3.143694e+00   4.409224e-03   3.682026e-03   8.653152e-07   26157220
  3.156445e+00   4.416011e-03   3.679581e-03   8.633245e-07   26351546
  3.169196e+00   4.421932e-03   3.682249e-03   8.610778e-07   26585314
  3.181952e+00   4.428989e-03   3.682365e-03   8.585933e-07   26800630
  3.194706e+00   4.434843e-03   3.680714e-03   8.569626e-07   27003376
  3.207455e+00   4.439681e-03   3.679962e-03   8.544589e-07   27213202
  3.220208e+00   4.444203e-03   3.683357e-03   8.517439e-07   27455194
  3.232966e+00   4.451287e-03   3.682253e-03   8.499963e-07   27666070
  3.245719e+00   4.462014e-03   3.680401e-03   8.486859e-07   27870280
  3.258468e+00   4.463400e-03   3.680260e-03   8.456584e-07   28088090
  3.271220e+00   4.470128e-03   3.682540e-03   8.433953e-07   28326262
  3.283977e+00   4.478621e-03   3.682410e-03   8.416294e-07   28546906
  3.296732e+00   4.482555e-03   3.681571e-03   8.396533e-07   28762552
  3.309484e+00   4.487539e-03   3.681027e-03   8.375969e-07   28979734
  3.322237e+00   4.492032e-03   3.681948e-03   8.347350e-07   29211106
  3.334990e+00   4.500366e-03   3.681286e-03   8.334707e-07   29431738
  3.347741e+00   4.506639e-03   3.680281e-03   8.315652e-07   29648776
  3.360493e+00   4.511220e-03   3.682059e-03   8.291290e-07   29888654
  3.373249e+00   4.515287e-03   3.682995e-03   8.269215e-07   30123490
  3.386003e+00   4.521853e-03   3.680742e-03   8.250606e-07   30334570
  3.398755e+00   4.528932e-03   3.681166e-03   8.232109e-07   30566524
  3.411507e+00   4.533442e-03   3.681508e-03   8.210520e-07   30798370
  3.424265e+00   4.539020e-03   3.684101e-03   8.186025e-07   31052026
  3.437018e+00   4.546659e-03   3.679094e-03   8.178721e-07   31241782
  3.449769e+00   4.551205e-03   3.682408e-03   8.146149e-07   31502128
  3.462523e+00   4.555721e-03   3.680952e-03   8.131772e-07   31721474
  3.475274e+00   4.560265e-03   3.681379e-03   8.108572e-07   31960210
  3.488028e+00   4.564324e-03   3.681819e-03   8.087199e-07   32200582
  3.500782e+00   4.570013e-03   3.681186e-03   8.071374e-07   32429512
  3.513537e+00   4.576552e-03   3.683389e-03   8.046838e-07   32685226
  3.526292e+00   4.581713e-03   3.680900e-03   8.034083e-07   32900830
  3.539043e+00   4.588269e-03   3.680394e-03   8.016966e-07   33135682
  3.551794e+00   4.591416e-03   3.681624e-03   7.989264e-07   33385288
  3.564548e+00   4.596750e-03   3.681804e-03   7.971613e-07   33625706
  3.577303e+00   4.602204e-03   3.682363e-03   7.951013e-07   33873550
  3.590054e+00   4.606227e-03   3.679768e-03   7.934820e-07   34091770
  3.602807e+00   4.612059e-03   3.682821e-03   7.918514e-07   34362160
