# power spectrum of phi
# redshift z=0.994293
# k              Pk             sigma(k)       sigma(Pk)      count
  9.713012e-03   3.943471e-10   2.406229e-03   3.767394e-11   146
  2.072432e-02   2.470947e-10   3.528511e-03   7.784695e-12   1042
  3.284725e-02   1.197529e-10   3.519819e-03   2.573635e-12   2698
  4.516399e-02   6.294394e-11   3.571852e-03   8.876394e-13   5206
  5.773095e-02   3.993509e-11   3.674394e-03   4.441121e-13   8752
  7.053126e-02   2.806451e-11   3.718866e-03   2.507130e-13   13258
  8.325183e-02   1.946837e-11   3.633038e-03   1.488455e-13   18070
  9.586244e-02   1.320315e-11   3.646001e-03   8.629009e-14   24050
  1.086731e-01   9.614174e-12   3.743375e-03   5.415540e-14   31720
  1.214673e-01   7.666229e-12   3.655693e-03   3.898761e-14   38722
  1.341503e-01   6.112892e-12   3.664149e-03   2.829457e-14   47398
  1.468737e-01   4.812935e-12   3.676840e-03   2.024001e-14   56986
  1.596345e-01   3.802643e-12   3.691904e-03   1.479607e-14   67552
  1.723758e-01   3.151036e-12   3.670421e-03   1.125371e-14   78310
  1.850973e-01   2.658949e-12   3.676755e-03   8.926090e-15   90514
  1.978078e-01   2.299554e-12   3.661019e-03   7.216054e-15   102938
  2.105352e-01   1.914099e-12   3.688328e-03   5.601536e-15   117412
  2.233038e-01   1.636767e-12   3.687633e-03   4.516212e-15   132106
  2.360543e-01   1.417650e-12   3.674616e-03   3.694587e-15   147154
  2.487863e-01   1.248845e-12   3.675727e-03   3.088965e-15   163522
  2.615607e-01   1.111149e-12   3.698362e-03   2.618991e-15   181804
  2.742948e-01   9.777071e-13   3.657995e-03   2.214422e-15   197722
  2.870326e-01   8.674602e-13   3.695982e-03   1.864187e-15   218866
  2.998036e-01   7.783500e-13   3.677083e-03   1.603043e-15   237542
  3.125403e-01   6.978629e-13   3.676719e-03   1.374971e-15   258136
  3.252883e-01   6.302879e-13   3.682574e-03   1.198412e-15   280066
  3.380302e-01   5.748465e-13   3.674707e-03   1.039803e-15   301774
  3.507809e-01   5.209770e-13   3.685866e-03   9.142960e-16   326050
  3.635453e-01   4.775616e-13   3.682723e-03   8.077342e-16   349792
  3.763059e-01   4.385927e-13   3.686387e-03   7.162064e-16   375154
  3.890549e-01   4.040303e-13   3.673994e-03   6.404026e-16   399742
  4.017814e-01   3.725373e-13   3.673301e-03   5.713770e-16   426266
  4.145262e-01   3.449041e-13   3.683104e-03   5.112146e-16   454960
  4.272780e-01   3.206902e-13   3.679614e-03   4.608931e-16   482734
  4.400302e-01   2.971557e-13   3.684412e-03   4.157093e-16   512746
  4.527916e-01   2.780620e-13   3.682552e-03   3.771907e-16   542746
  4.655520e-01   2.600497e-13   3.684426e-03   3.426583e-16   573952
  4.783045e-01   2.432304e-13   3.678870e-03   3.126404e-16   604918
  4.910489e-01   2.284044e-13   3.679488e-03   2.864950e-16   637666
  5.038054e-01   2.144728e-13   3.685840e-03   2.613162e-16   672482
  5.165640e-01   2.024712e-13   3.679909e-03   2.410323e-16   705748
  5.293052e-01   1.908717e-13   3.678052e-03   2.215899e-16   740482
  5.420630e-01   1.804819e-13   3.688653e-03   2.046371e-16   779026
  5.548129e-01   1.706334e-13   3.672495e-03   1.896284e-16   812614
  5.675646e-01   1.611330e-13   3.688923e-03   1.742981e-16   854200
  5.803275e-01   1.527243e-13   3.679836e-03   1.622267e-16   890746
  5.930743e-01   1.456959e-13   3.680017e-03   1.508126e-16   930394
  6.058234e-01   1.384944e-13   3.680076e-03   1.407358e-16   970982
  6.185756e-01   1.316766e-13   3.681715e-03   1.308522e-16   1012600
  6.313355e-01   1.256857e-13   3.685773e-03   1.225264e-16   1055890
  6.440885e-01   1.200172e-13   3.677546e-03   1.145162e-16   1096630
  6.568331e-01   1.147580e-13   3.679931e-03   1.073050e-16   1141378
  6.695858e-01   1.093398e-13   3.681602e-03   1.003580e-16   1186552
  6.823378e-01   1.050646e-13   3.681238e-03   9.440937e-17   1231798
  6.950926e-01   1.006716e-13   3.683520e-03   8.915432e-17   1279234
  7.078494e-01   9.631293e-14   3.681308e-03   8.376574e-17   1325906
  7.206034e-01   9.240247e-14   3.681998e-03   7.898115e-17   1374352
  7.333523e-01   8.855069e-14   3.678754e-03   7.443212e-17   1421950
  7.460986e-01   8.547787e-14   3.681438e-03   7.022017e-17   1472962
  7.588478e-01   8.232919e-14   3.678790e-03   6.682049e-17   1522954
  7.715908e-01   7.923694e-14   3.677970e-03   6.310203e-17   1573804
  7.843534e-01   7.644078e-14   3.691683e-03   5.984788e-17   1632274
  7.971185e-01   7.350752e-14   3.678939e-03   5.675641e-17   1680226
  8.098559e-01   7.081821e-14   3.674931e-03   5.383744e-17   1732682
  8.226044e-01   6.846347e-14   3.684362e-03   5.109983e-17   1792204
  8.353683e-01   6.628212e-14   3.685360e-03   4.877242e-17   1848298
  8.481180e-01   6.398602e-14   3.676906e-03   4.646475e-17   1901050
  8.608642e-01   6.184348e-14   3.681435e-03   4.421563e-17   1961326
  8.736200e-01   5.980871e-14   3.682643e-03   4.208738e-17   2020312
  8.863805e-01   5.804991e-14   3.684838e-03   4.028594e-17   2080930
  8.991420e-01   5.620532e-14   3.683140e-03   3.843887e-17   2140390
  9.118910e-01   5.441131e-14   3.677128e-03   3.670502e-17   2198162
  9.246418e-01   5.274340e-14   3.683722e-03   3.508537e-17   2263864
  9.374012e-01   5.117384e-14   3.683606e-03   3.352407e-17   2326426
  9.501557e-01   4.958908e-14   3.680653e-03   3.212752e-17   2388550
  9.629062e-01   4.825247e-14   3.680356e-03   3.079349e-17   2453098
  9.756546e-01   4.676856e-14   3.679357e-03   2.949415e-17   2517592
  9.884059e-01   4.553401e-14   3.683066e-03   2.833283e-17   2586070
  1.001159e+00   4.418690e-14   3.680738e-03   2.717100e-17   2651842
  1.013911e+00   4.298143e-14   3.680987e-03   2.604738e-17   2720330
  1.026668e+00   4.184524e-14   3.684024e-03   2.504288e-17   2791156
  1.039424e+00   4.063144e-14   3.681208e-03   2.407710e-17   2858554
  1.052176e+00   3.955935e-14   3.681647e-03   2.311402e-17   2929594
  1.064923e+00   3.855026e-14   3.678395e-03   2.228318e-17   2998762
  1.077674e+00   3.753341e-14   3.682468e-03   2.141900e-17   3074188
  1.090422e+00   3.656146e-14   3.678360e-03   2.062421e-17   3143482
  1.103180e+00   3.562075e-14   3.687908e-03   1.981958e-17   3226186
  1.115936e+00   3.474024e-14   3.676634e-03   1.916157e-17   3291158
  1.128688e+00   3.394961e-14   3.685737e-03   1.848363e-17   3375112
  1.141448e+00   3.306827e-14   3.681431e-03   1.782339e-17   3447658
  1.154199e+00   3.222334e-14   3.680732e-03   1.716674e-17   3524626
  1.166950e+00   3.145528e-14   3.680340e-03   1.656433e-17   3602998
  1.179695e+00   3.076150e-14   3.677316e-03   1.602810e-17   3678592
  1.192442e+00   3.002527e-14   3.682841e-03   1.548529e-17   3764122
  1.205202e+00   2.929037e-14   3.684112e-03   1.492656e-17   3846598
  1.217954e+00   2.861780e-14   3.678173e-03   1.446115e-17   3922250
  1.230710e+00   2.796189e-14   3.685590e-03   1.395994e-17   4013032
  1.243470e+00   2.741237e-14   3.681062e-03   1.355446e-17   4091182
  1.256219e+00   2.669574e-14   3.679790e-03   1.304839e-17   4174282
  1.268971e+00   2.612204e-14   3.681900e-03   1.265944e-17   4261978
  1.281726e+00   2.558106e-14   3.682600e-03   1.226875e-17   4348624
  1.294477e+00   2.498110e-14   3.679148e-03   1.187496e-17   4431430
  1.307227e+00   2.448109e-14   3.682586e-03   1.151753e-17   4523290
  1.319983e+00   2.395603e-14   3.681902e-03   1.116432e-17   4611386
  1.332735e+00   2.342680e-14   3.680296e-03   1.080765e-17   4698814
  1.345489e+00   2.290525e-14   3.683391e-03   1.046335e-17   4792984
  1.358246e+00   2.244043e-14   3.682510e-03   1.016144e-17   4883194
  1.370998e+00   2.197781e-14   3.679847e-03   9.863686e-18   4971694
  1.383751e+00   2.155309e-14   3.683258e-03   9.569556e-18   5069434
  1.396503e+00   2.108516e-14   3.679348e-03   9.292034e-18   5157736
  1.409253e+00   2.068252e-14   3.682013e-03   9.018998e-18   5256202
  1.422008e+00   2.027297e-14   3.682033e-03   8.758452e-18   5351990
  1.434759e+00   1.987998e-14   3.679659e-03   8.517400e-18   5444914
  1.447515e+00   1.945550e-14   3.684860e-03   8.253007e-18   5550088
  1.460276e+00   1.909133e-14   3.682696e-03   8.026655e-18   5644774
  1.473027e+00   1.869956e-14   3.679557e-03   7.807693e-18   5739034
  1.485777e+00   1.834172e-14   3.680933e-03   7.593230e-18   5841154
  1.498530e+00   1.800666e-14   3.681993e-03   7.393543e-18   5943448
  1.511286e+00   1.765002e-14   3.682434e-03   7.186033e-18   6045670
  1.524036e+00   1.730687e-14   3.679211e-03   6.985048e-18   6142586
  1.536786e+00   1.698562e-14   3.681853e-03   6.793131e-18   6250738
  1.549543e+00   1.667539e-14   3.683337e-03   6.614080e-18   6357172
  1.562298e+00   1.635289e-14   3.681419e-03   6.443110e-18   6458506
  1.575052e+00   1.604661e-14   3.682170e-03   6.269844e-18   6566290
  1.587803e+00   1.574600e-14   3.679052e-03   6.103111e-18   6667414
  1.600551e+00   1.546504e-14   3.681081e-03   5.940776e-18   6778336
  1.613305e+00   1.517956e-14   3.683166e-03   5.785327e-18   6890218
  1.626056e+00   1.492497e-14   3.679040e-03   5.647287e-18   6992306
  1.638811e+00   1.466250e-14   3.684406e-03   5.499260e-18   7113454
  1.651568e+00   1.439098e-14   3.680582e-03   5.361312e-18   7216216
  1.664317e+00   1.413141e-14   3.680762e-03   5.229348e-18   7328218
  1.677070e+00   1.388588e-14   3.682190e-03   5.093050e-18   7444414
  1.689821e+00   1.362218e-14   3.679673e-03   4.958030e-18   7553290
  1.702576e+00   1.339593e-14   3.684026e-03   4.837472e-18   7676368
  1.715331e+00   1.315088e-14   3.680267e-03   4.717233e-18   7783150
  1.728082e+00   1.293067e-14   3.682357e-03   4.600301e-18   7904570
  1.740836e+00   1.271051e-14   3.680236e-03   4.492258e-18   8017570
  1.753592e+00   1.249328e-14   3.684218e-03   4.381577e-18   8143840
  1.766349e+00   1.228467e-14   3.680993e-03   4.277758e-18   8255134
  1.779097e+00   1.207075e-14   3.679373e-03   4.172134e-18   8371450
  1.791848e+00   1.186501e-14   3.682049e-03   4.072900e-18   8498578
  1.804607e+00   1.167406e-14   3.683747e-03   3.977258e-18   8623180
  1.817364e+00   1.147194e-14   3.682371e-03   3.883653e-18   8742034
  1.830116e+00   1.128583e-14   3.679631e-03   3.793006e-18   8859194
  1.842864e+00   1.108611e-14   3.680027e-03   3.700114e-18   8984386
  1.855615e+00   1.090730e-14   3.681221e-03   3.617824e-18   9111652
  1.868371e+00   1.072895e-14   3.683946e-03   3.529968e-18   9243322
  1.881126e+00   1.055493e-14   3.680271e-03   3.451656e-18   9361378
  1.893877e+00   1.039009e-14   3.681448e-03   3.373168e-18   9491998
  1.906629e+00   1.021315e-14   3.680822e-03   3.293774e-18   9618016
  1.919381e+00   1.004374e-14   3.682003e-03   3.219183e-18   9750178
  1.932133e+00   9.889831e-15   3.680253e-03   3.148372e-18   9875558
  1.944887e+00   9.720151e-15   3.683525e-03   3.073408e-18   10015834
  1.957639e+00   9.564938e-15   3.678626e-03   3.005803e-18   10133344
  1.970392e+00   9.422476e-15   3.684706e-03   2.938297e-18   10282522
  1.983150e+00   9.267650e-15   3.681133e-03   2.878075e-18   10406974
  1.995898e+00   9.115996e-15   3.678810e-03   2.808816e-18   10534378
  2.008651e+00   8.976874e-15   3.684003e-03   2.748330e-18   10684456
  2.021409e+00   8.834632e-15   3.681823e-03   2.686022e-18   10813894
  2.034159e+00   8.695962e-15   3.679680e-03   2.630187e-18   10944626
  2.046911e+00   8.564959e-15   3.682687e-03   2.571271e-18   11091802
  2.059666e+00   8.426043e-15   3.681058e-03   2.517059e-18   11224756
  2.072419e+00   8.304179e-15   3.682125e-03   2.463399e-18   11367730
  2.085174e+00   8.171996e-15   3.681936e-03   2.410879e-18   11507890
  2.097925e+00   8.044998e-15   3.679320e-03   2.359133e-18   11640658
  2.110678e+00   7.922736e-15   3.683383e-03   2.307277e-18   11795380
  2.123435e+00   7.795528e-15   3.682010e-03   2.259181e-18   11933434
  2.136188e+00   7.683710e-15   3.681227e-03   2.213530e-18   12074954
  2.148943e+00   7.564838e-15   3.682833e-03   2.165586e-18   12225142
  2.161693e+00   7.449497e-15   3.678591e-03   2.120548e-18   12356104
  2.174441e+00   7.335824e-15   3.681911e-03   2.076534e-18   12513442
  2.187198e+00   7.223878e-15   3.683046e-03   2.032842e-18   12664810
  2.199955e+00   7.115823e-15   3.682461e-03   1.991044e-18   12811246
  2.212709e+00   7.009219e-15   3.680738e-03   1.948814e-18   12953536
  2.225459e+00   6.908687e-15   3.681278e-03   1.909942e-18   13105042
  2.238213e+00   6.806566e-15   3.681995e-03   1.870949e-18   13258670
  2.250966e+00   6.701319e-15   3.681453e-03   1.833259e-18   13408738
  2.263720e+00   6.604125e-15   3.681812e-03   1.795441e-18   13562320
  2.276472e+00   6.509710e-15   3.680281e-03   1.758589e-18   13709062
  2.289223e+00   6.418544e-15   3.682002e-03   1.726229e-18   13870258
  2.301982e+00   6.320015e-15   3.683866e-03   1.688597e-18   14032714
  2.314735e+00   6.222502e-15   3.678901e-03   1.654220e-18   14169232
  2.327485e+00   6.139791e-15   3.682472e-03   1.621313e-18   14339422
  2.340238e+00   6.047346e-15   3.680575e-03   1.590300e-18   14489330
  2.352991e+00   5.955912e-15   3.682051e-03   1.558228e-18   14654458
  2.365744e+00   5.870920e-15   3.680808e-03   1.527325e-18   14808292
  2.378495e+00   5.793311e-15   3.681362e-03   1.498808e-18   14970130
  2.391248e+00   5.704968e-15   3.681409e-03   1.469205e-18   15131626
  2.403999e+00   5.621504e-15   3.680405e-03   1.438850e-18   15289198
  2.416755e+00   5.542738e-15   3.683835e-03   1.411161e-18   15466552
  2.429511e+00   5.462431e-15   3.680792e-03   1.382878e-18   15616714
  2.442261e+00   5.378828e-15   3.680631e-03   1.355953e-18   15780506
  2.455014e+00   5.305693e-15   3.682312e-03   1.329795e-18   15953542
  2.467771e+00   5.231096e-15   3.682809e-03   1.305145e-18   16121296
  2.480521e+00   5.158321e-15   3.678892e-03   1.280771e-18   16270762
  2.493272e+00   5.087383e-15   3.683074e-03   1.255891e-18   16457182
  2.506029e+00   5.011401e-15   3.682337e-03   1.230558e-18   16623562
  2.518783e+00   4.940880e-15   3.680725e-03   1.206857e-18   16785784
  2.531534e+00   4.874589e-15   3.681653e-03   1.185351e-18   16959370
  2.544288e+00   4.805623e-15   3.682022e-03   1.162013e-18   17132774
  2.557041e+00   4.736141e-15   3.680981e-03   1.140900e-18   17300602
  2.569795e+00   4.674740e-15   3.682396e-03   1.119153e-18   17480656
  2.582549e+00   4.607251e-15   3.681028e-03   1.098410e-18   17647558
  2.595301e+00   4.544718e-15   3.681358e-03   1.078193e-18   17823778
  2.608054e+00   4.480302e-15   3.681613e-03   1.057376e-18   18001594
  2.620806e+00   4.416313e-15   3.680526e-03   1.037921e-18   18172300
  2.633559e+00   4.357935e-15   3.682066e-03   1.019244e-18   18356770
  2.646316e+00   4.298506e-15   3.683321e-03   1.000252e-18   18541082
  2.659073e+00   4.238138e-15   3.681934e-03   9.815022e-19   18713914
  2.671823e+00   4.178269e-15   3.679083e-03   9.636506e-19   18879742
  2.684574e+00   4.121893e-15   3.682617e-03   9.457279e-19   19077592
  2.697329e+00   4.065579e-15   3.681921e-03   9.277225e-19   19255474
  2.710083e+00   4.009948e-15   3.681561e-03   9.117337e-19   19436278
  2.722832e+00   3.957579e-15   3.678954e-03   8.953140e-19   19605994
  2.735585e+00   3.902755e-15   3.684099e-03   8.791150e-19   19817344
  2.748342e+00   3.848649e-15   3.681109e-03   8.626258e-19   19985702
  2.761094e+00   3.797443e-15   3.681644e-03   8.472700e-19   20175730
  2.773845e+00   3.746981e-15   3.679912e-03   8.321572e-19   20352682
  2.786598e+00   3.695348e-15   3.683498e-03   8.164849e-19   20559616
  2.799356e+00   3.646596e-15   3.682280e-03   8.027545e-19   20741518
  2.812105e+00   3.596514e-15   3.678894e-03   7.879153e-19   20912026
  2.824855e+00   3.549282e-15   3.682015e-03   7.738536e-19   21121018
  2.837610e+00   3.499717e-15   3.681802e-03   7.599012e-19   21310012
  2.850362e+00   3.454339e-15   3.680813e-03   7.467727e-19   21496154
  2.863118e+00   3.409614e-15   3.683473e-03   7.338655e-19   21705946
  2.875873e+00   3.361553e-15   3.680669e-03   7.204747e-19   21882562
  2.888626e+00   3.318637e-15   3.682162e-03   7.078966e-19   22085428
  2.901384e+00   3.273486e-15   3.683214e-03   6.950929e-19   22287106
  2.914134e+00   3.229714e-15   3.678437e-03   6.831511e-19   22455010
  2.926883e+00   3.187815e-15   3.681607e-03   6.714052e-19   22671694
  2.939638e+00   3.143440e-15   3.682507e-03   6.591061e-19   22874368
  2.952394e+00   3.104117e-15   3.682002e-03   6.481433e-19   23070146
  2.965147e+00   3.063302e-15   3.681033e-03   6.369177e-19   23264038
  2.977898e+00   3.023609e-15   3.680981e-03   6.257654e-19   23464210
  2.990653e+00   2.983535e-15   3.683188e-03   6.148194e-19   23679208
  3.003408e+00   2.944669e-15   3.681184e-03   6.044873e-19   23868658
  3.016160e+00   2.904801e-15   3.680900e-03   5.938185e-19   24070582
  3.028912e+00   2.867764e-15   3.681593e-03   5.834701e-19   24278842
  3.041665e+00   2.829475e-15   3.681417e-03   5.735573e-19   24482272
  3.054418e+00   2.793158e-15   3.681719e-03   5.640155e-19   24689510
  3.067171e+00   2.756254e-15   3.681372e-03   5.540629e-19   24894634
  3.079925e+00   2.720478e-15   3.682228e-03   5.446874e-19   25108474
  3.092680e+00   2.685282e-15   3.681825e-03   5.352164e-19   25313116
  3.105433e+00   2.651299e-15   3.680868e-03   5.262369e-19   25515970
  3.118184e+00   2.615916e-15   3.681155e-03   5.174241e-19   25727962
  3.130938e+00   2.583275e-15   3.682510e-03   5.087044e-19   25948954
  3.143694e+00   2.548958e-15   3.682026e-03   5.002824e-19   26157220
  3.156445e+00   2.517162e-15   3.679581e-03   4.921252e-19   26351546
  3.169196e+00   2.485178e-15   3.682249e-03   4.836703e-19   26585314
  3.181952e+00   2.453101e-15   3.682365e-03   4.754220e-19   26800630
  3.194706e+00   2.420295e-15   3.680714e-03   4.675151e-19   27003376
  3.207455e+00   2.389975e-15   3.679962e-03   4.599016e-19   27213202
  3.220208e+00   2.359122e-15   3.683357e-03   4.517397e-19   27455194
  3.232966e+00   2.329701e-15   3.682253e-03   4.445574e-19   27666070
  3.245719e+00   2.299508e-15   3.680401e-03   4.373114e-19   27870280
  3.258468e+00   2.270000e-15   3.680260e-03   4.300050e-19   28088090
  3.271220e+00   2.241075e-15   3.682540e-03   4.226837e-19   28326262
  3.283977e+00   2.212529e-15   3.682410e-03   4.156089e-19   28546906
  3.296732e+00   2.184343e-15   3.681571e-03   4.089660e-19   28762552
  3.309484e+00   2.156840e-15   3.681027e-03   4.021329e-19   28979734
  3.322237e+00   2.129334e-15   3.681948e-03   3.956881e-19   29211106
  3.334990e+00   2.103735e-15   3.681286e-03   3.894846e-19   29431738
  3.347741e+00   2.076196e-15   3.680281e-03   3.827978e-19   29648776
  3.360493e+00   2.049487e-15   3.682059e-03   3.765104e-19   29888654
  3.373249e+00   2.023783e-15   3.682995e-03   3.702144e-19   30123490
  3.386003e+00   1.998934e-15   3.680742e-03   3.642712e-19   30334570
  3.398755e+00   1.973989e-15   3.681166e-03   3.587113e-19   30566524
  3.411507e+00   1.948214e-15   3.681508e-03   3.526229e-19   30798370
  3.424265e+00   1.924603e-15   3.684101e-03   3.468469e-19   31052026
  3.437018e+00   1.900243e-15   3.679094e-03   3.416507e-19   31241782
  3.449769e+00   1.876684e-15   3.682408e-03   3.358462e-19   31502128
  3.462523e+00   1.853289e-15   3.680952e-03   3.305759e-19   31721474
  3.475274e+00   1.830287e-15   3.681379e-03   3.254186e-19   31960210
  3.488028e+00   1.807307e-15   3.681819e-03   3.200278e-19   32200582
  3.500782e+00   1.784999e-15   3.681186e-03   3.150978e-19   32429512
  3.513537e+00   1.762761e-15   3.683389e-03   3.098851e-19   32685226
  3.526292e+00   1.741006e-15   3.680900e-03   3.050660e-19   32900830
  3.539043e+00   1.719467e-15   3.680394e-03   3.003472e-19   33135682
  3.551794e+00   1.698351e-15   3.681624e-03   2.955286e-19   33385288
  3.564548e+00   1.677860e-15   3.681804e-03   2.908969e-19   33625706
  3.577303e+00   1.656354e-15   3.682363e-03   2.861088e-19   33873550
  3.590054e+00   1.635858e-15   3.679768e-03   2.816338e-19   34091770
  3.602807e+00   1.616263e-15   3.682821e-03   2.772893e-19   34362160
