# power spectrum of phi
# redshift z=4.989304
# k              Pk             sigma(k)       sigma(Pk)      count
  9.713012e-03   4.451576e-10   2.406229e-03   4.256420e-11   146
  2.072432e-02   2.788100e-10   3.528511e-03   8.776126e-12   1042
  3.284725e-02   1.355020e-10   3.519819e-03   2.912228e-12   2698
  4.516399e-02   7.132779e-11   3.571852e-03   1.009507e-12   5206
  5.773095e-02   4.544226e-11   3.674394e-03   5.085508e-13   8752
  7.053126e-02   3.204486e-11   3.718866e-03   2.845143e-13   13258
  8.325183e-02   2.212424e-11   3.633038e-03   1.686503e-13   18070
  9.586244e-02   1.488028e-11   3.646001e-03   9.703795e-14   24050
  1.086731e-01   1.072794e-11   3.743375e-03   6.038008e-14   31720
  1.214673e-01   8.580038e-12   3.655693e-03   4.363321e-14   38722
  1.341503e-01   6.856407e-12   3.664149e-03   3.186835e-14   47398
  1.468737e-01   5.322801e-12   3.676840e-03   2.235755e-14   56986
  1.596345e-01   4.111617e-12   3.691904e-03   1.598778e-14   67552
  1.723758e-01   3.367599e-12   3.670421e-03   1.204088e-14   78310
  1.850973e-01   2.839550e-12   3.676755e-03   9.519948e-15   90514
  1.978078e-01   2.445194e-12   3.661019e-03   7.719199e-15   102938
  2.105352e-01   2.002936e-12   3.688328e-03   5.868867e-15   117412
  2.233038e-01   1.681414e-12   3.687633e-03   4.640150e-15   132106
  2.360543e-01   1.433127e-12   3.674616e-03   3.737624e-15   147154
  2.487863e-01   1.251939e-12   3.675727e-03   3.104276e-15   163522
  2.615607e-01   1.104824e-12   3.698362e-03   2.603331e-15   181804
  2.742948e-01   9.561314e-13   3.657995e-03   2.168394e-15   197722
  2.870326e-01   8.282092e-13   3.695982e-03   1.775941e-15   218866
  2.998036e-01   7.349899e-13   3.677083e-03   1.512682e-15   237542
  3.125403e-01   6.525897e-13   3.676719e-03   1.287481e-15   258136
  3.252883e-01   5.847487e-13   3.682574e-03   1.108766e-15   280066
  3.380302e-01   5.201169e-13   3.674707e-03   9.494988e-16   301774
  3.507809e-01   4.648192e-13   3.685866e-03   8.155401e-16   326050
  3.635453e-01   4.199816e-13   3.682723e-03   7.121671e-16   349792
  3.763059e-01   3.802720e-13   3.686387e-03   6.231067e-16   375154
  3.890549e-01   3.455910e-13   3.673994e-03   5.489031e-16   399742
  4.017814e-01   3.152816e-13   3.673301e-03   4.853085e-16   426266
  4.145262e-01   2.850915e-13   3.683104e-03   4.239410e-16   454960
  4.272780e-01   2.614641e-13   3.679614e-03   3.767491e-16   482734
  4.400302e-01   2.401200e-13   3.684412e-03   3.358769e-16   512746
  4.527916e-01   2.203900e-13   3.682552e-03   2.996500e-16   542746
  4.655520e-01   2.022347e-13   3.684426e-03   2.675577e-16   573952
  4.783045e-01   1.864551e-13   3.678870e-03   2.408453e-16   604918
  4.910489e-01   1.729820e-13   3.679488e-03   2.172339e-16   637666
  5.038054e-01   1.599586e-13   3.685840e-03   1.950074e-16   672482
  5.165640e-01   1.489280e-13   3.679909e-03   1.778156e-16   705748
  5.293052e-01   1.381763e-13   3.678052e-03   1.604220e-16   740482
  5.420630e-01   1.282539e-13   3.688653e-03   1.449059e-16   779026
  5.548129e-01   1.195729e-13   3.672495e-03   1.325560e-16   812614
  5.675646e-01   1.115349e-13   3.688923e-03   1.207386e-16   854200
  5.803275e-01   1.042840e-13   3.679836e-03   1.105408e-16   890746
  5.930743e-01   9.779118e-14   3.680017e-03   1.014571e-16   930394
  6.058234e-01   9.175691e-14   3.680076e-03   9.311483e-17   970982
  6.185756e-01   8.618686e-14   3.681715e-03   8.581199e-17   1012600
  6.313355e-01   8.113238e-14   3.685773e-03   7.906593e-17   1055890
  6.440885e-01   7.635177e-14   3.677546e-03   7.302790e-17   1096630
  6.568331e-01   7.172767e-14   3.679931e-03   6.709884e-17   1141378
  6.695858e-01   6.766608e-14   3.681602e-03   6.221297e-17   1186552
  6.823378e-01   6.411120e-14   3.681238e-03   5.788465e-17   1231798
  6.950926e-01   6.041891e-14   3.683520e-03   5.359811e-17   1279234
  7.078494e-01   5.721064e-14   3.681308e-03   4.965039e-17   1325906
  7.206034e-01   5.415075e-14   3.681998e-03   4.618113e-17   1374352
  7.333523e-01   5.145115e-14   3.678754e-03   4.310635e-17   1421950
  7.460986e-01   4.882430e-14   3.681438e-03   4.021314e-17   1472962
  7.588478e-01   4.637938e-14   3.678790e-03   3.755509e-17   1522954
  7.715908e-01   4.410755e-14   3.677970e-03   3.513802e-17   1573804
  7.843534e-01   4.186610e-14   3.691683e-03   3.277657e-17   1632274
  7.971185e-01   3.983547e-14   3.678939e-03   3.076992e-17   1680226
  8.098559e-01   3.795198e-14   3.674931e-03   2.886017e-17   1732682
  8.226044e-01   3.614685e-14   3.684362e-03   2.701576e-17   1792204
  8.353683e-01   3.452868e-14   3.685360e-03   2.541339e-17   1848298
  8.481180e-01   3.297300e-14   3.676906e-03   2.395467e-17   1901050
  8.608642e-01   3.148151e-14   3.681435e-03   2.250946e-17   1961326
  8.736200e-01   3.015806e-14   3.682643e-03   2.123831e-17   2020312
  8.863805e-01   2.882774e-14   3.684838e-03   2.002729e-17   2080930
  8.991420e-01   2.757598e-14   3.683140e-03   1.884735e-17   2140390
  9.118910e-01   2.640344e-14   3.677128e-03   1.782125e-17   2198162
  9.246418e-01   2.530815e-14   3.683722e-03   1.683614e-17   2263864
  9.374012e-01   2.425961e-14   3.683606e-03   1.592043e-17   2326426
  9.501557e-01   2.332497e-14   3.680653e-03   1.511064e-17   2388550
  9.629062e-01   2.234244e-14   3.680356e-03   1.426328e-17   2453098
  9.756546e-01   2.145871e-14   3.679357e-03   1.352430e-17   2517592
  9.884059e-01   2.060541e-14   3.683066e-03   1.283573e-17   2586070
  1.001159e+00   1.979326e-14   3.680738e-03   1.216028e-17   2651842
  1.013911e+00   1.909075e-14   3.680987e-03   1.159395e-17   2720330
  1.026668e+00   1.835163e-14   3.684024e-03   1.099172e-17   2791156
  1.039424e+00   1.769110e-14   3.681208e-03   1.046811e-17   2858554
  1.052176e+00   1.703071e-14   3.681647e-03   9.953163e-18   2929594
  1.064923e+00   1.644018e-14   3.678395e-03   9.490573e-18   2998762
  1.077674e+00   1.583706e-14   3.682468e-03   9.038510e-18   3074188
  1.090422e+00   1.526943e-14   3.678360e-03   8.625353e-18   3143482
  1.103180e+00   1.469743e-14   3.687908e-03   8.185907e-18   3226186
  1.115936e+00   1.422036e-14   3.676634e-03   7.836394e-18   3291158
  1.128688e+00   1.372291e-14   3.685737e-03   7.470960e-18   3375112
  1.141448e+00   1.323803e-14   3.681431e-03   7.129469e-18   3447658
  1.154199e+00   1.281513e-14   3.680732e-03   6.830197e-18   3524626
  1.166950e+00   1.238225e-14   3.680340e-03   6.527582e-18   3602998
  1.179695e+00   1.197480e-14   3.677316e-03   6.252786e-18   3678592
  1.192442e+00   1.159053e-14   3.682841e-03   5.980863e-18   3764122
  1.205202e+00   1.120140e-14   3.684112e-03   5.720900e-18   3846598
  1.217954e+00   1.085382e-14   3.678173e-03   5.480330e-18   3922250
  1.230710e+00   1.049729e-14   3.685590e-03   5.240072e-18   4013032
  1.243470e+00   1.017886e-14   3.681062e-03   5.037949e-18   4091182
  1.256219e+00   9.852687e-15   3.679790e-03   4.826827e-18   4174282
  1.268971e+00   9.558514e-15   3.681900e-03   4.636023e-18   4261978
  1.281726e+00   9.256347e-15   3.682600e-03   4.446535e-18   4348624
  1.294477e+00   8.995730e-15   3.679148e-03   4.278854e-18   4431430
  1.307227e+00   8.701406e-15   3.682586e-03   4.097894e-18   4523290
  1.319983e+00   8.453057e-15   3.681902e-03   3.941712e-18   4611386
  1.332735e+00   8.215075e-15   3.680296e-03   3.789464e-18   4698814
  1.345489e+00   7.965227e-15   3.683391e-03   3.644310e-18   4792984
  1.358246e+00   7.748738e-15   3.682510e-03   3.504625e-18   4883194
  1.370998e+00   7.517963e-15   3.679847e-03   3.373619e-18   4971694
  1.383751e+00   7.305551e-15   3.683258e-03   3.250752e-18   5069434
  1.396503e+00   7.102538e-15   3.679348e-03   3.128486e-18   5157736
  1.409253e+00   6.904007e-15   3.682013e-03   3.016364e-18   5256202
  1.422008e+00   6.718739e-15   3.682033e-03   2.907149e-18   5351990
  1.434759e+00   6.531784e-15   3.679659e-03   2.807636e-18   5444914
  1.447515e+00   6.348406e-15   3.684860e-03   2.697574e-18   5550088
  1.460276e+00   6.181081e-15   3.682696e-03   2.605449e-18   5644774
  1.473027e+00   6.016274e-15   3.679557e-03   2.517780e-18   5739034
  1.485777e+00   5.857756e-15   3.680933e-03   2.427380e-18   5841154
  1.498530e+00   5.702995e-15   3.681993e-03   2.344451e-18   5943448
  1.511286e+00   5.560554e-15   3.682434e-03   2.265856e-18   6045670
  1.524036e+00   5.408298e-15   3.679211e-03   2.185105e-18   6142586
  1.536786e+00   5.274764e-15   3.681853e-03   2.113793e-18   6250738
  1.549543e+00   5.142194e-15   3.683337e-03   2.041597e-18   6357172
  1.562298e+00   5.014377e-15   3.681419e-03   1.975534e-18   6458506
  1.575052e+00   4.886822e-15   3.682170e-03   1.910419e-18   6566290
  1.587803e+00   4.763558e-15   3.679052e-03   1.848060e-18   6667414
  1.600551e+00   4.645328e-15   3.681081e-03   1.788142e-18   6778336
  1.613305e+00   4.533576e-15   3.683166e-03   1.729292e-18   6890218
  1.626056e+00   4.423820e-15   3.679040e-03   1.675751e-18   6992306
  1.638811e+00   4.314811e-15   3.684406e-03   1.621322e-18   7113454
  1.651568e+00   4.218133e-15   3.680582e-03   1.572320e-18   7216216
  1.664317e+00   4.115647e-15   3.680762e-03   1.522564e-18   7328218
  1.677070e+00   4.016962e-15   3.682190e-03   1.475580e-18   7444414
  1.689821e+00   3.930989e-15   3.679673e-03   1.433285e-18   7553290
  1.702576e+00   3.829099e-15   3.684026e-03   1.384799e-18   7676368
  1.715331e+00   3.743730e-15   3.680267e-03   1.344809e-18   7783150
  1.728082e+00   3.657497e-15   3.682357e-03   1.302904e-18   7904570
  1.740836e+00   3.574155e-15   3.680236e-03   1.264932e-18   8017570
  1.753592e+00   3.494460e-15   3.684218e-03   1.227429e-18   8143840
  1.766349e+00   3.414300e-15   3.680993e-03   1.191600e-18   8255134
  1.779097e+00   3.339885e-15   3.679373e-03   1.156474e-18   8371450
  1.791848e+00   3.263357e-15   3.682049e-03   1.121012e-18   8498578
  1.804607e+00   3.197283e-15   3.683747e-03   1.091201e-18   8623180
  1.817364e+00   3.126047e-15   3.682371e-03   1.058778e-18   8742034
  1.830116e+00   3.057238e-15   3.679631e-03   1.029945e-18   8859194
  1.842864e+00   2.987807e-15   3.680027e-03   1.000120e-18   8984386
  1.855615e+00   2.926032e-15   3.681221e-03   9.722539e-19   9111652
  1.868371e+00   2.861211e-15   3.683946e-03   9.433380e-19   9243322
  1.881126e+00   2.802919e-15   3.680271e-03   9.189207e-19   9361378
  1.893877e+00   2.744305e-15   3.681448e-03   8.945859e-19   9491998
  1.906629e+00   2.685329e-15   3.680822e-03   8.688558e-19   9618016
  1.919381e+00   2.629937e-15   3.682003e-03   8.452662e-19   9750178
  1.932133e+00   2.574933e-15   3.680253e-03   8.225210e-19   9875558
  1.944887e+00   2.521236e-15   3.683525e-03   7.994070e-19   10015834
  1.957639e+00   2.472148e-15   3.678626e-03   7.793233e-19   10133344
  1.970392e+00   2.422001e-15   3.684706e-03   7.581130e-19   10282522
  1.983150e+00   2.370265e-15   3.681133e-03   7.373180e-19   10406974
  1.995898e+00   2.328089e-15   3.678810e-03   7.199564e-19   10534378
  2.008651e+00   2.279578e-15   3.684003e-03   7.002258e-19   10684456
  2.021409e+00   2.234051e-15   3.681823e-03   6.819345e-19   10813894
  2.034159e+00   2.191040e-15   3.679680e-03   6.641291e-19   10944626
  2.046911e+00   2.148299e-15   3.682687e-03   6.468263e-19   11091802
  2.059666e+00   2.105412e-15   3.681058e-03   6.306606e-19   11224756
  2.072419e+00   2.063542e-15   3.682125e-03   6.141239e-19   11367730
  2.085174e+00   2.024278e-15   3.681936e-03   5.992865e-19   11507890
  2.097925e+00   1.985953e-15   3.679320e-03   5.840224e-19   11640658
  2.110678e+00   1.947996e-15   3.683383e-03   5.694269e-19   11795380
  2.123435e+00   1.911452e-15   3.682010e-03   5.562087e-19   11933434
  2.136188e+00   1.873935e-15   3.681227e-03   5.415421e-19   12074954
  2.148943e+00   1.839947e-15   3.682833e-03   5.285613e-19   12225142
  2.161693e+00   1.804486e-15   3.678591e-03   5.155981e-19   12356104
  2.174441e+00   1.772495e-15   3.681911e-03   5.030505e-19   12513442
  2.187198e+00   1.737962e-15   3.683046e-03   4.906347e-19   12664810
  2.199955e+00   1.708366e-15   3.682461e-03   4.799878e-19   12811246
  2.212709e+00   1.676962e-15   3.680738e-03   4.678360e-19   12953536
  2.225459e+00   1.645659e-15   3.681278e-03   4.569434e-19   13105042
  2.238213e+00   1.616344e-15   3.681995e-03   4.456946e-19   13258670
  2.250966e+00   1.587842e-15   3.681453e-03   4.355976e-19   13408738
  2.263720e+00   1.558520e-15   3.681812e-03   4.252106e-19   13562320
  2.276472e+00   1.531500e-15   3.680281e-03   4.159384e-19   13709062
  2.289223e+00   1.505024e-15   3.682002e-03   4.061981e-19   13870258
  2.301982e+00   1.478136e-15   3.683866e-03   3.967416e-19   14032714
  2.314735e+00   1.452332e-15   3.678901e-03   3.877609e-19   14169232
  2.327485e+00   1.428288e-15   3.682472e-03   3.790938e-19   14339422
  2.340238e+00   1.401584e-15   3.680575e-03   3.698923e-19   14489330
  2.352991e+00   1.378589e-15   3.682051e-03   3.621359e-19   14654458
  2.365744e+00   1.354102e-15   3.680808e-03   3.539920e-19   14808292
  2.378495e+00   1.331337e-15   3.681362e-03   3.460666e-19   14970130
  2.391248e+00   1.308121e-15   3.681409e-03   3.384224e-19   15131626
  2.403999e+00   1.286368e-15   3.680405e-03   3.309008e-19   15289198
  2.416755e+00   1.264477e-15   3.683835e-03   3.233753e-19   15466552
  2.429511e+00   1.243870e-15   3.680792e-03   3.165845e-19   15616714
  2.442261e+00   1.223351e-15   3.680631e-03   3.098171e-19   15780506
  2.455014e+00   1.201724e-15   3.682312e-03   3.027328e-19   15953542
  2.467771e+00   1.182217e-15   3.682809e-03   2.962998e-19   16121296
  2.480521e+00   1.163380e-15   3.678892e-03   2.903254e-19   16270762
  2.493272e+00   1.144239e-15   3.683074e-03   2.840081e-19   16457182
  2.506029e+00   1.125168e-15   3.682337e-03   2.780181e-19   16623562
  2.518783e+00   1.106770e-15   3.680725e-03   2.719619e-19   16785784
  2.531534e+00   1.089562e-15   3.681653e-03   2.664950e-19   16959370
  2.544288e+00   1.071967e-15   3.682022e-03   2.609141e-19   17132774
  2.557041e+00   1.054739e-15   3.680981e-03   2.554008e-19   17300602
  2.569795e+00   1.037930e-15   3.682396e-03   2.501146e-19   17480656
  2.582549e+00   1.021417e-15   3.681028e-03   2.449578e-19   17647558
  2.595301e+00   1.005168e-15   3.681358e-03   2.398760e-19   17823778
  2.608054e+00   9.894124e-16   3.681613e-03   2.349252e-19   18001594
  2.620806e+00   9.732788e-16   3.680526e-03   2.301441e-19   18172300
  2.633559e+00   9.592094e-16   3.682066e-03   2.257411e-19   18356770
  2.646316e+00   9.438686e-16   3.683321e-03   2.210330e-19   18541082
  2.659073e+00   9.290362e-16   3.681934e-03   2.165508e-19   18713914
  2.671823e+00   9.147854e-16   3.679083e-03   2.123949e-19   18879742
  2.684574e+00   9.011534e-16   3.682617e-03   2.079738e-19   19077592
  2.697329e+00   8.871819e-16   3.681921e-03   2.039107e-19   19255474
  2.710083e+00   8.736031e-16   3.681561e-03   1.997938e-19   19436278
  2.722832e+00   8.602390e-16   3.678954e-03   1.959689e-19   19605994
  2.735585e+00   8.473247e-16   3.684099e-03   1.921196e-19   19817344
  2.748342e+00   8.345527e-16   3.681109e-03   1.884810e-19   19985702
  2.761094e+00   8.224524e-16   3.681644e-03   1.847571e-19   20175730
  2.773845e+00   8.102745e-16   3.679912e-03   1.812887e-19   20352682
  2.786598e+00   7.980504e-16   3.683498e-03   1.777245e-19   20559616
  2.799356e+00   7.867430e-16   3.682280e-03   1.743799e-19   20741518
  2.812105e+00   7.747929e-16   3.678894e-03   1.711006e-19   20912026
  2.824855e+00   7.633126e-16   3.682015e-03   1.677805e-19   21121018
  2.837610e+00   7.521093e-16   3.681802e-03   1.645512e-19   21310012
  2.850362e+00   7.411843e-16   3.680813e-03   1.615268e-19   21496154
  2.863118e+00   7.303844e-16   3.683473e-03   1.584552e-19   21705946
  2.875873e+00   7.203430e-16   3.680669e-03   1.556232e-19   21882562
  2.888626e+00   7.094967e-16   3.682162e-03   1.526161e-19   22085428
  2.901384e+00   6.992750e-16   3.683214e-03   1.497176e-19   22287106
  2.914134e+00   6.889306e-16   3.678437e-03   1.469454e-19   22455010
  2.926883e+00   6.799668e-16   3.681607e-03   1.444265e-19   22671694
  2.939638e+00   6.700162e-16   3.682507e-03   1.416760e-19   22874368
  2.952394e+00   6.601972e-16   3.682002e-03   1.390471e-19   23070146
  2.965147e+00   6.512381e-16   3.681033e-03   1.366218e-19   23264038
  2.977898e+00   6.420599e-16   3.680981e-03   1.340874e-19   23464210
  2.990653e+00   6.332861e-16   3.683188e-03   1.316962e-19   23679208
  3.003408e+00   6.242268e-16   3.681184e-03   1.292998e-19   23868658
  3.016160e+00   6.155747e-16   3.680900e-03   1.270115e-19   24070582
  3.028912e+00   6.071158e-16   3.681593e-03   1.247755e-19   24278842
  3.041665e+00   5.990050e-16   3.681417e-03   1.225695e-19   24482272
  3.054418e+00   5.906601e-16   3.681719e-03   1.203515e-19   24689510
  3.067171e+00   5.824943e-16   3.681372e-03   1.182505e-19   24894634
  3.079925e+00   5.746849e-16   3.682228e-03   1.162332e-19   25108474
  3.092680e+00   5.669365e-16   3.681825e-03   1.141945e-19   25313116
  3.105433e+00   5.592181e-16   3.680868e-03   1.121760e-19   25515970
  3.118184e+00   5.514146e-16   3.681155e-03   1.101413e-19   25727962
  3.130938e+00   5.444214e-16   3.682510e-03   1.083682e-19   25948954
  3.143694e+00   5.369299e-16   3.682026e-03   1.064516e-19   26157220
  3.156445e+00   5.298452e-16   3.679581e-03   1.047326e-19   26351546
  3.169196e+00   5.228536e-16   3.682249e-03   1.028099e-19   26585314
  3.181952e+00   5.157392e-16   3.682365e-03   1.010973e-19   26800630
  3.194706e+00   5.088737e-16   3.680714e-03   9.939306e-20   27003376
  3.207455e+00   5.024615e-16   3.679962e-03   9.777231e-20   27213202
  3.220208e+00   4.960492e-16   3.683357e-03   9.612985e-20   27455194
  3.232966e+00   4.894376e-16   3.682253e-03   9.447097e-20   27666070
  3.245719e+00   4.825812e-16   3.680401e-03   9.283246e-20   27870280
  3.258468e+00   4.765869e-16   3.680260e-03   9.131226e-20   28088090
  3.271220e+00   4.706152e-16   3.682540e-03   8.982644e-20   28326262
  3.283977e+00   4.643789e-16   3.682410e-03   8.832335e-20   28546906
  3.296732e+00   4.585997e-16   3.681571e-03   8.691946e-20   28762552
  3.309484e+00   4.523883e-16   3.681027e-03   8.540701e-20   28979734
  3.322237e+00   4.467368e-16   3.681948e-03   8.405215e-20   29211106
  3.334990e+00   4.411057e-16   3.681286e-03   8.268456e-20   29431738
  3.347741e+00   4.354738e-16   3.680281e-03   8.136555e-20   29648776
  3.360493e+00   4.302129e-16   3.682059e-03   8.002823e-20   29888654
  3.373249e+00   4.245309e-16   3.682995e-03   7.874252e-20   30123490
  3.386003e+00   4.193155e-16   3.680742e-03   7.749829e-20   30334570
  3.398755e+00   4.139570e-16   3.681166e-03   7.623055e-20   30566524
  3.411507e+00   4.089323e-16   3.681508e-03   7.504047e-20   30798370
  3.424265e+00   4.038273e-16   3.684101e-03   7.379120e-20   31052026
  3.437018e+00   3.988327e-16   3.679094e-03   7.270265e-20   31241782
  3.449769e+00   3.937023e-16   3.682408e-03   7.144790e-20   31502128
  3.462523e+00   3.890585e-16   3.680952e-03   7.040504e-20   31721474
  3.475274e+00   3.842672e-16   3.681379e-03   6.930363e-20   31960210
  3.488028e+00   3.795981e-16   3.681819e-03   6.820681e-20   32200582
  3.500782e+00   3.748837e-16   3.681186e-03   6.715643e-20   32429512
  3.513537e+00   3.705209e-16   3.683389e-03   6.610862e-20   32685226
  3.526292e+00   3.660042e-16   3.680900e-03   6.513620e-20   32900830
  3.539043e+00   3.613276e-16   3.680394e-03   6.407188e-20   33135682
  3.551794e+00   3.571731e-16   3.681624e-03   6.311018e-20   33385288
  3.564548e+00   3.527247e-16   3.681804e-03   6.208807e-20   33625706
  3.577303e+00   3.487804e-16   3.682363e-03   6.120654e-20   33873550
  3.590054e+00   3.445280e-16   3.679768e-03   6.031027e-20   34091770
  3.602807e+00   3.403147e-16   3.682821e-03   5.932141e-20   34362160
