# power spectrum of zeta (dimensionless)
# redshift z=0.993603
# k              Pk             sigma(k)       sigma(Pk)      count
  5.011399e-03   1.248417e-18   7.667927e-04   2.447276e-19   18
  1.037418e-02   3.629026e-17   1.725047e-03   4.196346e-18   128
  1.616528e-02   1.620751e-16   1.646572e-03   9.156111e-18   314
  2.269071e-02   3.895067e-16   1.954354e-03   1.511742e-17   728
  2.897169e-02   7.438892e-16   1.717946e-03   2.498285e-17   1016
  3.518826e-02   1.032223e-15   1.880676e-03   2.552649e-17   1682
  4.169479e-02   1.542884e-15   1.831736e-03   3.233808e-17   2300
  4.790974e-02   1.960479e-15   1.770731e-03   3.680239e-17   2906
  5.429022e-02   2.617837e-15   1.892687e-03   4.298850e-17   4040
  6.068098e-02   3.379487e-15   1.775551e-03   5.085268e-17   4712
  6.698900e-02   4.275614e-15   1.857705e-03   5.528666e-17   6002
  7.346135e-02   5.038963e-15   1.857594e-03   6.007947e-17   7256
  7.977379e-02   5.966936e-15   1.772571e-03   6.764673e-17   8120
  8.609019e-02   6.496637e-15   1.864951e-03   6.518443e-17   9950
  9.253636e-02   7.133336e-15   1.853578e-03   6.600320e-17   11384
  9.885187e-02   7.562658e-15   1.809244e-03   6.818002e-17   12666
  1.052712e-01   8.322072e-15   1.889168e-03   6.692083e-17   15104
  1.117654e-01   9.114324e-15   1.850532e-03   7.157965e-17   16616
  1.180754e-01   1.030263e-14   1.799489e-03   7.718929e-17   18026
  1.244216e-01   1.122775e-14   1.853405e-03   7.705055e-17   20696
  1.308065e-01   1.211864e-14   1.827918e-03   8.153559e-17   22436
  1.371558e-01   1.319284e-14   1.845873e-03   8.374072e-17   24962
  1.435394e-01   1.380361e-14   1.831283e-03   8.274914e-17   27176
  1.499133e-01   1.414636e-14   1.847268e-03   8.218866e-17   29810
  1.562775e-01   1.468482e-14   1.828450e-03   8.267856e-17   32120
  1.626776e-01   1.520506e-14   1.865216e-03   8.114050e-17   35432
  1.690383e-01   1.604402e-14   1.814577e-03   8.262261e-17   37238
  1.754019e-01   1.684871e-14   1.856016e-03   8.337271e-17   41072
  1.817869e-01   1.761987e-14   1.834293e-03   8.528854e-17   43472
  1.881565e-01   1.868624e-14   1.848176e-03   8.666532e-17   47042
  1.945298e-01   1.970432e-14   1.829223e-03   8.966998e-17   49712
  2.008693e-01   2.041774e-14   1.840592e-03   8.880584e-17   53226
  2.072637e-01   2.046311e-14   1.853753e-03   8.538856e-17   57320
  2.136558e-01   2.107350e-14   1.831629e-03   8.630328e-17   60092
  2.200056e-01   2.158205e-14   1.839426e-03   8.564728e-17   63914
  2.263950e-01   2.188405e-14   1.849752e-03   8.363449e-17   68192
  2.327751e-01   2.247048e-14   1.833934e-03   8.373694e-17   71336
  2.391397e-01   2.306330e-14   1.845607e-03   8.374382e-17   75818
  2.455297e-01   2.375366e-14   1.844019e-03   8.438174e-17   79880
  2.518964e-01   2.437281e-14   1.834462e-03   8.408369e-17   83642
  2.582661e-01   2.525042e-14   1.840779e-03   8.517983e-17   88316
  2.646730e-01   2.562469e-14   1.859422e-03   8.427215e-17   93488
  2.710484e-01   2.595077e-14   1.827184e-03   8.403034e-17   96458
  2.773871e-01   2.626203e-14   1.829038e-03   8.317047e-17   101264
  2.837816e-01   2.647201e-14   1.862873e-03   8.071281e-17   107696
  2.901819e-01   2.676663e-14   1.837217e-03   8.074233e-17   111170
  2.965233e-01   2.732399e-14   1.822285e-03   8.092240e-17   115232
  3.028941e-01   2.764741e-14   1.855375e-03   7.888584e-17   122310
  3.093019e-01   2.786695e-14   1.843350e-03   7.821023e-17   126944
  3.156739e-01   2.841796e-14   1.828600e-03   7.860913e-17   131192
  3.220432e-01   2.862422e-14   1.844535e-03   7.773998e-17   137618
  3.284234e-01   2.906058e-14   1.836674e-03   7.707581e-17   142448
  3.347979e-01   2.925014e-14   1.844704e-03   7.573066e-17   148520
  3.411627e-01   2.938169e-14   1.831436e-03   7.514039e-17   153254
  3.475446e-01   2.963811e-14   1.852010e-03   7.427068e-17   160760
  3.539284e-01   2.962925e-14   1.835751e-03   7.293681e-17   165290
  3.603019e-01   3.012430e-14   1.840148e-03   7.250813e-17   171992
  3.666828e-01   3.011444e-14   1.840217e-03   7.158269e-17   177800
  3.730569e-01   3.034101e-14   1.843032e-03   7.087554e-17   184322
  3.794439e-01   3.067321e-14   1.841595e-03   7.061994e-17   190832
  3.858239e-01   3.061144e-14   1.839260e-03   6.918376e-17   196772
  3.921872e-01   3.105125e-14   1.836453e-03   6.895153e-17   202970
  3.985536e-01   3.111526e-14   1.839266e-03   6.820487e-17   210056
  4.049173e-01   3.102899e-14   1.832832e-03   6.691885e-17   216210
  4.112896e-01   3.109685e-14   1.841640e-03   6.569780e-17   224168
  4.176700e-01   3.097466e-14   1.840761e-03   6.466882e-17   230792
  4.240565e-01   3.130556e-14   1.846256e-03   6.433271e-17   238778
  4.304312e-01   3.124289e-14   1.831772e-03   6.289840e-17   243956
  4.367939e-01   3.130238e-14   1.845141e-03   6.219169e-17   252680
  4.431746e-01   3.135273e-14   1.842020e-03   6.153590e-17   260066
  4.495713e-01   3.126449e-14   1.849294e-03   6.042727e-17   268712
  4.559494e-01   3.130018e-14   1.834336e-03   6.002576e-17   274034
  4.623270e-01   3.118930e-14   1.847366e-03   5.857392e-17   283904
  4.687088e-01   3.124243e-14   1.837425e-03   5.810910e-17   290048
  4.750707e-01   3.112542e-14   1.836659e-03   5.712028e-17   297950
  4.814434e-01   3.113912e-14   1.842026e-03   5.632825e-17   306968
  4.878269e-01   3.129373e-14   1.843240e-03   5.589191e-17   315320
  4.942006e-01   3.087033e-14   1.835899e-03   5.449754e-17   322346
  5.005701e-01   3.094374e-14   1.842589e-03   5.358917e-17   331664
  5.069538e-01   3.089737e-14   1.844896e-03   5.297002e-17   340818
  5.133346e-01   3.085362e-14   1.837322e-03   5.238086e-17   348164
  5.197083e-01   3.076469e-14   1.843548e-03   5.151955e-17   357584
  5.260929e-01   3.072378e-14   1.846059e-03   5.071721e-17   367106
  5.324635e-01   3.046932e-14   1.832285e-03   4.984720e-17   373376
  5.388350e-01   3.028556e-14   1.848023e-03   4.860443e-17   385376
  5.452233e-01   3.020049e-14   1.842356e-03   4.811033e-17   393650
  5.516038e-01   3.014004e-14   1.840588e-03   4.746470e-17   402704
  5.579656e-01   2.993994e-14   1.830970e-03   4.690711e-17   409910
  5.643320e-01   2.977484e-14   1.843407e-03   4.575206e-17   422024
  5.707212e-01   2.950689e-14   1.846526e-03   4.499994e-17   432176
  5.771022e-01   2.946884e-14   1.837404e-03   4.439060e-17   440066
  5.834769e-01   2.927714e-14   1.841263e-03   4.357155e-17   450680
  5.898365e-01   2.922250e-14   1.831084e-03   4.319159e-17   457856
  5.962115e-01   2.897911e-14   1.848347e-03   4.210262e-17   472538
  6.026013e-01   2.885525e-14   1.839689e-03   4.171513e-17   480140
  6.089752e-01   2.869657e-14   1.841279e-03   4.096054e-17   490842
  6.153517e-01   2.859019e-14   1.838382e-03   4.047787e-17   500744
  6.217295e-01   2.831368e-14   1.842392e-03   3.971239e-17   511856
  6.281145e-01   2.815685e-14   1.844734e-03   3.902111e-17   523202
  6.344991e-01   2.807230e-14   1.840396e-03   3.857803e-17   532688
  6.408638e-01   2.783784e-14   1.834541e-03   3.789091e-17   541520
  6.472341e-01   2.766241e-14   1.842653e-03   3.720840e-17   555110
  6.536136e-01   2.747117e-14   1.839126e-03   3.656967e-17   564944
  6.599884e-01   2.728435e-14   1.839832e-03   3.592652e-17   576434
  6.663740e-01   2.706985e-14   1.844405e-03   3.527400e-17   588848
  6.727501e-01   2.687531e-14   1.838623e-03   3.472751e-17   597704
  6.791236e-01   2.673245e-14   1.842386e-03   3.419831e-17   610946
  6.855006e-01   2.660930e-14   1.837794e-03   3.380592e-17   620852
  6.918722e-01   2.640226e-14   1.841901e-03   3.325734e-17   633530
  6.982524e-01   2.616183e-14   1.841844e-03   3.268951e-17   645704
  7.046316e-01   2.605362e-14   1.840565e-03   3.222861e-17   656744
  7.110074e-01   2.567621e-14   1.841941e-03   3.144681e-17   669162
  7.173906e-01   2.560614e-14   1.843286e-03   3.102404e-17   681992
  7.237681e-01   2.543226e-14   1.838959e-03   3.065642e-17   692360
  7.301485e-01   2.523970e-14   1.844364e-03   3.008822e-17   707006
  7.365206e-01   2.504138e-14   1.834135e-03   2.970020e-17   714944
  7.428835e-01   2.485704e-14   1.841775e-03   2.910383e-17   730346
  7.492606e-01   2.467899e-14   1.838962e-03   2.855432e-17   742616
  7.556415e-01   2.455616e-14   1.843530e-03   2.830123e-17   756536
  7.620128e-01   2.438652e-14   1.836595e-03   2.792501e-17   766418
  7.683917e-01   2.415993e-14   1.845753e-03   2.722859e-17   783392
  7.747614e-01   2.400445e-14   1.833632e-03   2.697013e-17   790412
  7.811334e-01   2.381463e-14   1.848120e-03   2.651602e-17   810314
  7.875277e-01   2.363523e-14   1.843702e-03   2.611414e-17   821960
  7.938987e-01   2.342221e-14   1.834976e-03   2.573224e-17   831266
  8.002712e-01   2.319369e-14   1.843706e-03   2.526166e-17   848960
  8.066557e-01   2.305136e-14   1.842629e-03   2.485876e-17   861488
  8.130204e-01   2.288115e-14   1.833334e-03   2.453494e-17   871194
  8.193985e-01   2.274277e-14   1.847247e-03   2.408476e-17   891788
  8.257796e-01   2.254735e-14   1.838008e-03   2.380062e-17   900416
  8.321422e-01   2.238793e-14   1.836250e-03   2.339574e-17   914306
  8.385264e-01   2.222426e-14   1.847988e-03   2.304504e-17   933992
  8.449011e-01   2.203893e-14   1.834294e-03   2.279328e-17   940826
  8.512701e-01   2.192135e-14   1.842364e-03   2.245430e-17   960224
  8.576621e-01   2.166066e-14   1.846556e-03   2.194576e-17   976316
  8.640381e-01   2.159733e-14   1.835724e-03   2.176053e-17   985010
  8.704114e-01   2.140482e-14   1.843336e-03   2.143468e-17   1004024
  8.767898e-01   2.126498e-14   1.839706e-03   2.112925e-17   1016288
  8.831639e-01   2.107608e-14   1.840690e-03   2.071282e-17   1032290
  8.895470e-01   2.096082e-14   1.843156e-03   2.048721e-17   1048640
  8.959130e-01   2.080482e-14   1.831919e-03   2.028838e-17   1057250
  9.022937e-01   2.065550e-14   1.849588e-03   1.986115e-17   1083140
  9.086870e-01   2.048230e-14   1.840763e-03   1.963678e-17   1092248
  9.150555e-01   2.032028e-14   1.837510e-03   1.938451e-17   1105914
  9.214310e-01   2.017226e-14   1.841822e-03   1.907050e-17   1124744
  9.278120e-01   2.000528e-14   1.841202e-03   1.875923e-17   1139120
  9.341841e-01   1.981166e-14   1.838536e-03   1.845251e-17   1153490
  9.405650e-01   1.971613e-14   1.844187e-03   1.821925e-17   1172936
  9.469357e-01   1.958728e-14   1.834491e-03   1.805344e-17   1182158
  9.533110e-01   1.935079e-14   1.846126e-03   1.768586e-17   1206392
  9.596894e-01   1.932360e-14   1.835525e-03   1.756907e-17   1215224
  9.660641e-01   1.912768e-14   1.844936e-03   1.725561e-17   1237874
  9.724505e-01   1.898501e-14   1.841050e-03   1.702232e-17   1251800
  9.788233e-01   1.888089e-14   1.838619e-03   1.681764e-17   1265792
  9.851993e-01   1.875762e-14   1.843109e-03   1.657598e-17   1286306
  9.915793e-01   1.861411e-14   1.838809e-03   1.634427e-17   1299764
  9.979438e-01   1.846357e-14   1.836769e-03   1.613078e-17   1314554
  1.004319e+00   1.831228e-14   1.843595e-03   1.584830e-17   1337288
  1.010703e+00   1.816216e-14   1.840912e-03   1.563572e-17   1351304
  1.017077e+00   1.808385e-14   1.841769e-03   1.548485e-17   1369026
  1.023461e+00   1.795071e-14   1.843478e-03   1.525152e-17   1388456
  1.029842e+00   1.781924e-14   1.840406e-03   1.508612e-17   1402700
  1.036211e+00   1.767030e-14   1.837802e-03   1.491352e-17   1418282
  1.042587e+00   1.754567e-14   1.843596e-03   1.465099e-17   1440272
  1.048964e+00   1.746189e-14   1.838705e-03   1.450315e-17   1454114
  1.055341e+00   1.731614e-14   1.842603e-03   1.428315e-17   1475480
  1.061720e+00   1.718644e-14   1.840520e-03   1.409765e-17   1490936
  1.068091e+00   1.706766e-14   1.838519e-03   1.392972e-17   1507826
  1.074472e+00   1.694721e-14   1.844275e-03   1.374582e-17   1530764
  1.080850e+00   1.685041e-14   1.839052e-03   1.360920e-17   1543424
  1.087222e+00   1.673397e-14   1.841688e-03   1.341475e-17   1564946
  1.093594e+00   1.661391e-14   1.835875e-03   1.323943e-17   1578536
  1.099970e+00   1.650071e-14   1.845670e-03   1.305665e-17   1604882
  1.106358e+00   1.639425e-14   1.842454e-03   1.290396e-17   1621304
  1.112736e+00   1.626122e-14   1.839545e-03   1.272285e-17   1637024
  1.119103e+00   1.615742e-14   1.837794e-03   1.257107e-17   1654134
  1.125480e+00   1.605283e-14   1.844256e-03   1.243065e-17   1679168
  1.131864e+00   1.593247e-14   1.841903e-03   1.225651e-17   1695944
  1.138235e+00   1.583086e-14   1.836568e-03   1.211541e-17   1710602
  1.144612e+00   1.569632e-14   1.844777e-03   1.193518e-17   1737056
  1.150994e+00   1.559289e-14   1.840390e-03   1.179461e-17   1752602
  1.157370e+00   1.549930e-14   1.839227e-03   1.167812e-17   1772024
  1.163752e+00   1.540909e-14   1.844090e-03   1.153151e-17   1795364
  1.170126e+00   1.527130e-14   1.836467e-03   1.137035e-17   1807634
  1.176490e+00   1.519284e-14   1.836183e-03   1.127116e-17   1827608
  1.182859e+00   1.509007e-14   1.840789e-03   1.112558e-17   1850984
  1.189240e+00   1.499764e-14   1.844107e-03   1.098937e-17   1874618
  1.195619e+00   1.486365e-14   1.838445e-03   1.082312e-17   1889504
  1.202001e+00   1.476399e-14   1.845373e-03   1.067492e-17   1916870
  1.208383e+00   1.470200e-14   1.838254e-03   1.060213e-17   1929728
  1.214760e+00   1.459445e-14   1.843674e-03   1.046032e-17   1955408
  1.221131e+00   1.447736e-14   1.834427e-03   1.034526e-17   1966842
  1.227503e+00   1.437265e-14   1.843005e-03   1.019277e-17   1996640
  1.233886e+00   1.430319e-14   1.842690e-03   1.007342e-17   2016392
  1.240265e+00   1.420362e-14   1.839730e-03   9.968776e-18   2034722
  1.246641e+00   1.412329e-14   1.840813e-03   9.873742e-18   2056460
  1.253014e+00   1.401433e-14   1.838931e-03   9.757341e-18   2075186
  1.259388e+00   1.392343e-14   1.840566e-03   9.615888e-18   2099096
  1.265761e+00   1.382742e-14   1.837910e-03   9.545604e-18   2116832
  1.272138e+00   1.372623e-14   1.844119e-03   9.403887e-18   2145146
  1.278526e+00   1.364193e-14   1.844128e-03   9.296351e-18   2166776
  1.284904e+00   1.353628e-14   1.838822e-03   9.185119e-18   2181848
  1.291273e+00   1.346846e-14   1.838785e-03   9.095873e-18   2203766
  1.297646e+00   1.335333e-14   1.840619e-03   8.976552e-18   2227664
  1.304025e+00   1.331498e-14   1.842381e-03   8.870057e-18   2252138
  1.310403e+00   1.318531e-14   1.839825e-03   8.761302e-18   2271152
  1.316777e+00   1.312300e-14   1.840536e-03   8.680256e-18   2293256
  1.323154e+00   1.300824e-14   1.842085e-03   8.573078e-18   2318130
  1.329536e+00   1.292002e-14   1.841956e-03   8.463868e-18   2340824
  1.335910e+00   1.284541e-14   1.838342e-03   8.395257e-18   2357990
  1.342292e+00   1.277361e-14   1.846396e-03   8.288219e-18   2391176
  1.348671e+00   1.268484e-14   1.837209e-03   8.218003e-18   2401808
  1.355040e+00   1.260389e-14   1.840258e-03   8.109777e-18   2428442
  1.361418e+00   1.252012e-14   1.842645e-03   8.022239e-18   2454752
  1.367798e+00   1.245093e-14   1.841270e-03   7.946172e-18   2475872
  1.374172e+00   1.235536e-14   1.838763e-03   7.854502e-18   2495822
  1.380543e+00   1.227331e-14   1.839940e-03   7.763226e-18   2520248
  1.386922e+00   1.217091e-14   1.844043e-03   7.645304e-18   2549186
  1.393299e+00   1.211176e-14   1.837661e-03   7.595696e-18   2564768
  1.399672e+00   1.202888e-14   1.841284e-03   7.500871e-18   2592968
  1.406054e+00   1.197350e-14   1.843378e-03   7.433196e-18   2619818
  1.412431e+00   1.187824e-14   1.838027e-03   7.329364e-18   2636384
  1.418803e+00   1.180825e-14   1.840293e-03   7.256789e-18   2662220
  1.425180e+00   1.172916e-14   1.842524e-03   7.163049e-18   2689770
  1.431560e+00   1.164344e-14   1.840994e-03   7.093795e-18   2712296
  1.437933e+00   1.157445e-14   1.838431e-03   7.019384e-18   2732618
  1.444312e+00   1.149878e-14   1.843932e-03   6.938881e-18   2765264
  1.450695e+00   1.144156e-14   1.840894e-03   6.880850e-18   2784824
  1.457066e+00   1.136101e-14   1.837138e-03   6.811009e-18   2804162
  1.463445e+00   1.127569e-14   1.844971e-03   6.716001e-18   2840612
  1.469825e+00   1.119295e-14   1.839130e-03   6.645669e-18   2855576
  1.476198e+00   1.111883e-14   1.840533e-03   6.566223e-18   2883458
  1.482571e+00   1.105800e-14   1.838217e-03   6.510455e-18   2904128
  1.488946e+00   1.097813e-14   1.843378e-03   6.437963e-18   2937026
  1.495325e+00   1.092778e-14   1.839218e-03   6.381289e-18   2956976
  1.501703e+00   1.084882e-14   1.841967e-03   6.304633e-18   2986472
  1.508082e+00   1.077431e-14   1.840166e-03   6.238565e-18   3008918
  1.514460e+00   1.070115e-14   1.841773e-03   6.171771e-18   3036752
  1.520836e+00   1.062404e-14   1.839884e-03   6.102915e-18   3058376
  1.527209e+00   1.056609e-14   1.839616e-03   6.040037e-18   3084210
  1.533583e+00   1.050361e-14   1.840948e-03   5.978649e-18   3111848
  1.539960e+00   1.042371e-14   1.841348e-03   5.905712e-18   3138890
  1.546339e+00   1.036102e-14   1.840626e-03   5.847339e-18   3164516
  1.552719e+00   1.029927e-14   1.842638e-03   5.789182e-18   3192656
  1.559097e+00   1.024163e-14   1.840555e-03   5.733811e-18   3215618
  1.565473e+00   1.016940e-14   1.840732e-03   5.675931e-18   3242888
  1.571846e+00   1.008474e-14   1.839114e-03   5.595548e-18   3265448
  1.578224e+00   1.002801e-14   1.843575e-03   5.545625e-18   3300842
  1.584604e+00   9.971232e-15   1.839884e-03   5.497337e-18   3321008
  1.590977e+00   9.895891e-15   1.839336e-03   5.433354e-18   3346406
  1.597352e+00   9.842163e-15   1.841596e-03   5.370990e-18   3377984
  1.603728e+00   9.770723e-15   1.839551e-03   5.327577e-18   3400352
  1.610103e+00   9.710367e-15   1.841321e-03   5.263363e-18   3431450
  1.616483e+00   9.650598e-15   1.841519e-03   5.216712e-18   3458768
  1.622859e+00   9.597031e-15   1.841183e-03   5.169994e-18   3484088
  1.629231e+00   9.519885e-15   1.838425e-03   5.097165e-18   3508218
  1.635610e+00   9.468557e-15   1.843946e-03   5.051675e-18   3545924
  1.641992e+00   9.417239e-15   1.841053e-03   4.998621e-18   3567530
  1.648369e+00   9.345416e-15   1.840183e-03   4.951268e-18   3595040
  1.654744e+00   9.278470e-15   1.840167e-03   4.900071e-18   3621176
  1.661115e+00   9.230656e-15   1.839521e-03   4.857412e-18   3647738
  1.667490e+00   9.163140e-15   1.841438e-03   4.792144e-18   3680480
  1.673870e+00   9.101591e-15   1.842082e-03   4.741903e-18   3709712
  1.680248e+00   9.036740e-15   1.840008e-03   4.700147e-18   3734702
  1.686623e+00   8.977576e-15   1.840362e-03   4.648963e-18   3762776
  1.692996e+00   8.925041e-15   1.839854e-03   4.603584e-18   3790514
  1.699371e+00   8.867794e-15   1.839908e-03   4.561101e-18   3820352
  1.705752e+00   8.824147e-15   1.844068e-03   4.519305e-18   3856016
  1.712131e+00   8.753441e-15   1.839690e-03   4.467235e-18   3876818
  1.718506e+00   8.697684e-15   1.839874e-03   4.421966e-18   3906332
  1.724882e+00   8.641382e-15   1.841963e-03   4.377043e-18   3938216
  1.731260e+00   8.589254e-15   1.840685e-03   4.335416e-18   3966354
  1.737636e+00   8.532826e-15   1.839695e-03   4.291780e-18   3993536
  1.744011e+00   8.468305e-15   1.840344e-03   4.244116e-18   4024034
  1.750392e+00   8.430755e-15   1.843071e-03   4.201663e-18   4060208
  1.756773e+00   8.365431e-15   1.840812e-03   4.164540e-18   4083632
  1.763145e+00   8.306612e-15   1.837811e-03   4.118289e-18   4107062
  1.769521e+00   8.271603e-15   1.842771e-03   4.083788e-18   4148072
  1.775893e+00   8.204304e-15   1.836707e-03   4.046112e-18   4163456
  1.782267e+00   8.155893e-15   1.842476e-03   3.993914e-18   4207994
  1.788652e+00   8.094414e-15   1.843367e-03   3.952101e-18   4239152
  1.795029e+00   8.033773e-15   1.839132e-03   3.912993e-18   4259426
  1.801407e+00   7.988008e-15   1.842524e-03   3.874309e-18   4299488
  1.807788e+00   7.947279e-15   1.840660e-03   3.848452e-18   4323692
  1.814162e+00   7.885958e-15   1.840093e-03   3.804242e-18   4353242
  1.820541e+00   7.851570e-15   1.841694e-03   3.772450e-18   4388792
