# power spectrum of delta_kessence
# redshift z=0.993603
# k              Pk             sigma(k)       sigma(Pk)      count
  5.011399e-03   1.331415e-08   7.667927e-04   2.587674e-09   18
  1.037418e-02   3.682616e-07   1.725047e-03   4.249161e-08   128
  1.616528e-02   1.631214e-06   1.646572e-03   9.209867e-08   314
  2.269071e-02   3.907917e-06   1.954354e-03   1.516350e-07   728
  2.897169e-02   7.454268e-06   1.717946e-03   2.503380e-07   1016
  3.518826e-02   1.033674e-05   1.880676e-03   2.556173e-07   1682
  4.169479e-02   1.544420e-05   1.831736e-03   3.236942e-07   2300
  4.790974e-02   1.961961e-05   1.770731e-03   3.682989e-07   2906
  5.429022e-02   2.619378e-05   1.892687e-03   4.301354e-07   4040
  6.068098e-02   3.381084e-05   1.775551e-03   5.087655e-07   4712
  6.698900e-02   4.277271e-05   1.857705e-03   5.530802e-07   6002
  7.346135e-02   5.040589e-05   1.857594e-03   6.009885e-07   7256
  7.977379e-02   5.968566e-05   1.772571e-03   6.766514e-07   8120
  8.609019e-02   6.498161e-05   1.864951e-03   6.519971e-07   9950
  9.253636e-02   7.134784e-05   1.853578e-03   6.601655e-07   11384
  9.885187e-02   7.564004e-05   1.809244e-03   6.819217e-07   12666
  1.052712e-01   8.323377e-05   1.889168e-03   6.693129e-07   15104
  1.117654e-01   9.115591e-05   1.850532e-03   7.158958e-07   16616
  1.180754e-01   1.030391e-04   1.799489e-03   7.719889e-07   18026
  1.244216e-01   1.122901e-04   1.853405e-03   7.705916e-07   20696
  1.308065e-01   1.211987e-04   1.827918e-03   8.154386e-07   22436
  1.371558e-01   1.319406e-04   1.845873e-03   8.374844e-07   24962
  1.435394e-01   1.380477e-04   1.831283e-03   8.275611e-07   27176
  1.499133e-01   1.414745e-04   1.847268e-03   8.219499e-07   29810
  1.562775e-01   1.468586e-04   1.828450e-03   8.268442e-07   32120
  1.626776e-01   1.520606e-04   1.865216e-03   8.114581e-07   35432
  1.690383e-01   1.604499e-04   1.814577e-03   8.262761e-07   37238
  1.754019e-01   1.684966e-04   1.856016e-03   8.337740e-07   41072
  1.817869e-01   1.762079e-04   1.834293e-03   8.529301e-07   43472
  1.881565e-01   1.868715e-04   1.848176e-03   8.666956e-07   47042
  1.945298e-01   1.970522e-04   1.829223e-03   8.967407e-07   49712
  2.008693e-01   2.041862e-04   1.840592e-03   8.880964e-07   53226
  2.072637e-01   2.046393e-04   1.853753e-03   8.539200e-07   57320
  2.136558e-01   2.107430e-04   1.831629e-03   8.630655e-07   60092
  2.200056e-01   2.158282e-04   1.839426e-03   8.565034e-07   63914
  2.263950e-01   2.188478e-04   1.849752e-03   8.363731e-07   68192
  2.327751e-01   2.247120e-04   1.833934e-03   8.373961e-07   71336
  2.391397e-01   2.306400e-04   1.845607e-03   8.374634e-07   75818
  2.455297e-01   2.375433e-04   1.844019e-03   8.438416e-07   79880
  2.518964e-01   2.437348e-04   1.834462e-03   8.408597e-07   83642
  2.582661e-01   2.525107e-04   1.840779e-03   8.518203e-07   88316
  2.646730e-01   2.562532e-04   1.859422e-03   8.427422e-07   93488
  2.710484e-01   2.595138e-04   1.827184e-03   8.403231e-07   96458
  2.773871e-01   2.626261e-04   1.829038e-03   8.317233e-07   101264
  2.837816e-01   2.647258e-04   1.862873e-03   8.071454e-07   107696
  2.901819e-01   2.676718e-04   1.837217e-03   8.074398e-07   111170
  2.965233e-01   2.732453e-04   1.822285e-03   8.092398e-07   115232
  3.028941e-01   2.764793e-04   1.855375e-03   7.888732e-07   122310
  3.093019e-01   2.786745e-04   1.843350e-03   7.821163e-07   126944
  3.156739e-01   2.841845e-04   1.828600e-03   7.861048e-07   131192
  3.220432e-01   2.862469e-04   1.844535e-03   7.774126e-07   137618
  3.284234e-01   2.906104e-04   1.836674e-03   7.707704e-07   142448
  3.347979e-01   2.925059e-04   1.844704e-03   7.573181e-07   148520
  3.411627e-01   2.938212e-04   1.831436e-03   7.514150e-07   153254
  3.475446e-01   2.963853e-04   1.852010e-03   7.427173e-07   160760
  3.539284e-01   2.962966e-04   1.835751e-03   7.293781e-07   165290
  3.603019e-01   3.012469e-04   1.840148e-03   7.250908e-07   171992
  3.666828e-01   3.011482e-04   1.840217e-03   7.158360e-07   177800
  3.730569e-01   3.034139e-04   1.843032e-03   7.087641e-07   184322
  3.794439e-01   3.067357e-04   1.841595e-03   7.062078e-07   190832
  3.858239e-01   3.061179e-04   1.839260e-03   6.918455e-07   196772
  3.921872e-01   3.105160e-04   1.836453e-03   6.895229e-07   202970
  3.985536e-01   3.111559e-04   1.839266e-03   6.820560e-07   210056
  4.049173e-01   3.102931e-04   1.832832e-03   6.691954e-07   216210
  4.112896e-01   3.109716e-04   1.841640e-03   6.569846e-07   224168
  4.176700e-01   3.097496e-04   1.840761e-03   6.466945e-07   230792
  4.240565e-01   3.130586e-04   1.846256e-03   6.433332e-07   238778
  4.304312e-01   3.124317e-04   1.831772e-03   6.289898e-07   243956
  4.367939e-01   3.130265e-04   1.845141e-03   6.219224e-07   252680
  4.431746e-01   3.135300e-04   1.842020e-03   6.153643e-07   260066
  4.495713e-01   3.126475e-04   1.849294e-03   6.042778e-07   268712
  4.559494e-01   3.130044e-04   1.834336e-03   6.002625e-07   274034
  4.623270e-01   3.118955e-04   1.847366e-03   5.857438e-07   283904
  4.687088e-01   3.124268e-04   1.837425e-03   5.810955e-07   290048
  4.750707e-01   3.112566e-04   1.836659e-03   5.712071e-07   297950
  4.814434e-01   3.113935e-04   1.842026e-03   5.632867e-07   306968
  4.878269e-01   3.129395e-04   1.843240e-03   5.589230e-07   315320
  4.942006e-01   3.087054e-04   1.835899e-03   5.449791e-07   322346
  5.005701e-01   3.094395e-04   1.842589e-03   5.358953e-07   331664
  5.069538e-01   3.089757e-04   1.844896e-03   5.297037e-07   340818
  5.133346e-01   3.085382e-04   1.837322e-03   5.238120e-07   348164
  5.197083e-01   3.076488e-04   1.843548e-03   5.151987e-07   357584
  5.260929e-01   3.072397e-04   1.846059e-03   5.071752e-07   367106
  5.324635e-01   3.046950e-04   1.832285e-03   4.984750e-07   373376
  5.388350e-01   3.028573e-04   1.848023e-03   4.860471e-07   385376
  5.452233e-01   3.020066e-04   1.842356e-03   4.811060e-07   393650
  5.516038e-01   3.014021e-04   1.840588e-03   4.746497e-07   402704
  5.579656e-01   2.994011e-04   1.830970e-03   4.690736e-07   409910
  5.643320e-01   2.977499e-04   1.843407e-03   4.575231e-07   422024
  5.707212e-01   2.950705e-04   1.846526e-03   4.500018e-07   432176
  5.771022e-01   2.946899e-04   1.837404e-03   4.439082e-07   440066
  5.834769e-01   2.927729e-04   1.841263e-03   4.357177e-07   450680
  5.898365e-01   2.922264e-04   1.831084e-03   4.319180e-07   457856
  5.962115e-01   2.897924e-04   1.848347e-03   4.210282e-07   472538
  6.026013e-01   2.885538e-04   1.839689e-03   4.171532e-07   480140
  6.089752e-01   2.869670e-04   1.841279e-03   4.096073e-07   490842
  6.153517e-01   2.859032e-04   1.838382e-03   4.047805e-07   500744
  6.217295e-01   2.831381e-04   1.842392e-03   3.971256e-07   511856
  6.281145e-01   2.815697e-04   1.844734e-03   3.902128e-07   523202
  6.344991e-01   2.807241e-04   1.840396e-03   3.857819e-07   532688
  6.408638e-01   2.783795e-04   1.834541e-03   3.789107e-07   541520
  6.472341e-01   2.766252e-04   1.842653e-03   3.720855e-07   555110
  6.536136e-01   2.747128e-04   1.839126e-03   3.656982e-07   564944
  6.599884e-01   2.728446e-04   1.839832e-03   3.592666e-07   576434
  6.663740e-01   2.706996e-04   1.844405e-03   3.527413e-07   588848
  6.727501e-01   2.687541e-04   1.838623e-03   3.472764e-07   597704
  6.791236e-01   2.673255e-04   1.842386e-03   3.419844e-07   610946
  6.855006e-01   2.660940e-04   1.837794e-03   3.380604e-07   620852
  6.918722e-01   2.640235e-04   1.841901e-03   3.325746e-07   633530
  6.982524e-01   2.616193e-04   1.841844e-03   3.268962e-07   645704
  7.046316e-01   2.605371e-04   1.840565e-03   3.222872e-07   656744
  7.110074e-01   2.567629e-04   1.841941e-03   3.144691e-07   669162
  7.173906e-01   2.560622e-04   1.843286e-03   3.102415e-07   681992
  7.237681e-01   2.543234e-04   1.838959e-03   3.065652e-07   692360
  7.301485e-01   2.523978e-04   1.844364e-03   3.008832e-07   707006
  7.365206e-01   2.504146e-04   1.834135e-03   2.970030e-07   714944
  7.428835e-01   2.485712e-04   1.841775e-03   2.910392e-07   730346
  7.492606e-01   2.467907e-04   1.838962e-03   2.855441e-07   742616
  7.556415e-01   2.455624e-04   1.843530e-03   2.830132e-07   756536
  7.620128e-01   2.438659e-04   1.836595e-03   2.792509e-07   766418
  7.683917e-01   2.416000e-04   1.845753e-03   2.722867e-07   783392
  7.747614e-01   2.400452e-04   1.833632e-03   2.697021e-07   790412
  7.811334e-01   2.381470e-04   1.848120e-03   2.651610e-07   810314
  7.875277e-01   2.363529e-04   1.843702e-03   2.611421e-07   821960
  7.938987e-01   2.342227e-04   1.834976e-03   2.573231e-07   831266
  8.002712e-01   2.319375e-04   1.843706e-03   2.526173e-07   848960
  8.066557e-01   2.305142e-04   1.842629e-03   2.485883e-07   861488
  8.130204e-01   2.288121e-04   1.833334e-03   2.453500e-07   871194
  8.193985e-01   2.274283e-04   1.847247e-03   2.408483e-07   891788
  8.257796e-01   2.254741e-04   1.838008e-03   2.380068e-07   900416
  8.321422e-01   2.238799e-04   1.836250e-03   2.339580e-07   914306
  8.385264e-01   2.222432e-04   1.847988e-03   2.304509e-07   933992
  8.449011e-01   2.203898e-04   1.834294e-03   2.279334e-07   940826
  8.512701e-01   2.192140e-04   1.842364e-03   2.245435e-07   960224
  8.576621e-01   2.166071e-04   1.846556e-03   2.194581e-07   976316
  8.640381e-01   2.159738e-04   1.835724e-03   2.176058e-07   985010
  8.704114e-01   2.140487e-04   1.843336e-03   2.143473e-07   1004024
  8.767898e-01   2.126503e-04   1.839706e-03   2.112930e-07   1016288
  8.831639e-01   2.107613e-04   1.840690e-03   2.071286e-07   1032290
  8.895470e-01   2.096087e-04   1.843156e-03   2.048726e-07   1048640
  8.959130e-01   2.080486e-04   1.831919e-03   2.028842e-07   1057250
  9.022937e-01   2.065554e-04   1.849588e-03   1.986119e-07   1083140
  9.086870e-01   2.048234e-04   1.840763e-03   1.963682e-07   1092248
  9.150555e-01   2.032032e-04   1.837510e-03   1.938455e-07   1105914
  9.214310e-01   2.017230e-04   1.841822e-03   1.907054e-07   1124744
  9.278120e-01   2.000532e-04   1.841202e-03   1.875926e-07   1139120
  9.341841e-01   1.981170e-04   1.838536e-03   1.845255e-07   1153490
  9.405650e-01   1.971617e-04   1.844187e-03   1.821929e-07   1172936
  9.469357e-01   1.958732e-04   1.834491e-03   1.805347e-07   1182158
  9.533110e-01   1.935082e-04   1.846126e-03   1.768590e-07   1206392
  9.596894e-01   1.932364e-04   1.835525e-03   1.756911e-07   1215224
  9.660641e-01   1.912772e-04   1.844936e-03   1.725564e-07   1237874
  9.724505e-01   1.898504e-04   1.841050e-03   1.702235e-07   1251800
  9.788233e-01   1.888093e-04   1.838619e-03   1.681768e-07   1265792
  9.851993e-01   1.875765e-04   1.843109e-03   1.657601e-07   1286306
  9.915793e-01   1.861414e-04   1.838809e-03   1.634430e-07   1299764
  9.979438e-01   1.846360e-04   1.836769e-03   1.613081e-07   1314554
  1.004319e+00   1.831231e-04   1.843595e-03   1.584833e-07   1337288
  1.010703e+00   1.816219e-04   1.840912e-03   1.563575e-07   1351304
  1.017077e+00   1.808388e-04   1.841769e-03   1.548488e-07   1369026
  1.023461e+00   1.795074e-04   1.843478e-03   1.525155e-07   1388456
  1.029842e+00   1.781927e-04   1.840406e-03   1.508615e-07   1402700
  1.036211e+00   1.767033e-04   1.837802e-03   1.491355e-07   1418282
  1.042587e+00   1.754570e-04   1.843596e-03   1.465101e-07   1440272
  1.048964e+00   1.746192e-04   1.838705e-03   1.450317e-07   1454114
  1.055341e+00   1.731617e-04   1.842603e-03   1.428317e-07   1475480
  1.061720e+00   1.718647e-04   1.840520e-03   1.409767e-07   1490936
  1.068091e+00   1.706769e-04   1.838519e-03   1.392974e-07   1507826
  1.074472e+00   1.694724e-04   1.844275e-03   1.374584e-07   1530764
  1.080850e+00   1.685044e-04   1.839052e-03   1.360922e-07   1543424
  1.087222e+00   1.673400e-04   1.841688e-03   1.341477e-07   1564946
  1.093594e+00   1.661394e-04   1.835875e-03   1.323945e-07   1578536
  1.099970e+00   1.650074e-04   1.845670e-03   1.305667e-07   1604882
  1.106358e+00   1.639428e-04   1.842454e-03   1.290398e-07   1621304
  1.112736e+00   1.626125e-04   1.839545e-03   1.272287e-07   1637024
  1.119103e+00   1.615744e-04   1.837794e-03   1.257109e-07   1654134
  1.125480e+00   1.605285e-04   1.844256e-03   1.243067e-07   1679168
  1.131864e+00   1.593249e-04   1.841903e-03   1.225652e-07   1695944
  1.138235e+00   1.583089e-04   1.836568e-03   1.211543e-07   1710602
  1.144612e+00   1.569634e-04   1.844777e-03   1.193519e-07   1737056
  1.150994e+00   1.559292e-04   1.840390e-03   1.179463e-07   1752602
  1.157370e+00   1.549932e-04   1.839227e-03   1.167813e-07   1772024
  1.163752e+00   1.540911e-04   1.844090e-03   1.153153e-07   1795364
  1.170126e+00   1.527132e-04   1.836467e-03   1.137036e-07   1807634
  1.176490e+00   1.519286e-04   1.836183e-03   1.127117e-07   1827608
  1.182859e+00   1.509009e-04   1.840789e-03   1.112560e-07   1850984
  1.189240e+00   1.499766e-04   1.844107e-03   1.098939e-07   1874618
  1.195619e+00   1.486367e-04   1.838445e-03   1.082313e-07   1889504
  1.202001e+00   1.476401e-04   1.845373e-03   1.067493e-07   1916870
  1.208383e+00   1.470202e-04   1.838254e-03   1.060214e-07   1929728
  1.214760e+00   1.459447e-04   1.843674e-03   1.046034e-07   1955408
  1.221131e+00   1.447738e-04   1.834427e-03   1.034527e-07   1966842
  1.227503e+00   1.437267e-04   1.843005e-03   1.019278e-07   1996640
  1.233886e+00   1.430321e-04   1.842690e-03   1.007343e-07   2016392
  1.240265e+00   1.420364e-04   1.839730e-03   9.968788e-08   2034722
  1.246641e+00   1.412331e-04   1.840813e-03   9.873754e-08   2056460
  1.253014e+00   1.401435e-04   1.838931e-03   9.757352e-08   2075186
  1.259388e+00   1.392345e-04   1.840566e-03   9.615899e-08   2099096
  1.265761e+00   1.382744e-04   1.837910e-03   9.545615e-08   2116832
  1.272138e+00   1.372625e-04   1.844119e-03   9.403898e-08   2145146
  1.278526e+00   1.364194e-04   1.844128e-03   9.296362e-08   2166776
  1.284904e+00   1.353629e-04   1.838822e-03   9.185129e-08   2181848
  1.291273e+00   1.346848e-04   1.838785e-03   9.095883e-08   2203766
  1.297646e+00   1.335335e-04   1.840619e-03   8.976562e-08   2227664
  1.304025e+00   1.331500e-04   1.842381e-03   8.870067e-08   2252138
  1.310403e+00   1.318532e-04   1.839825e-03   8.761311e-08   2271152
  1.316777e+00   1.312302e-04   1.840536e-03   8.680265e-08   2293256
  1.323154e+00   1.300825e-04   1.842085e-03   8.573087e-08   2318130
  1.329536e+00   1.292003e-04   1.841956e-03   8.463877e-08   2340824
  1.335910e+00   1.284542e-04   1.838342e-03   8.395266e-08   2357990
  1.342292e+00   1.277362e-04   1.846396e-03   8.288227e-08   2391176
  1.348671e+00   1.268486e-04   1.837209e-03   8.218012e-08   2401808
  1.355040e+00   1.260391e-04   1.840258e-03   8.109785e-08   2428442
  1.361418e+00   1.252013e-04   1.842645e-03   8.022247e-08   2454752
  1.367798e+00   1.245094e-04   1.841270e-03   7.946180e-08   2475872
  1.374172e+00   1.235537e-04   1.838763e-03   7.854510e-08   2495822
  1.380543e+00   1.227332e-04   1.839940e-03   7.763234e-08   2520248
  1.386922e+00   1.217092e-04   1.844043e-03   7.645312e-08   2549186
  1.393299e+00   1.211177e-04   1.837661e-03   7.595704e-08   2564768
  1.399672e+00   1.202890e-04   1.841284e-03   7.500878e-08   2592968
  1.406054e+00   1.197351e-04   1.843378e-03   7.433203e-08   2619818
  1.412431e+00   1.187825e-04   1.838027e-03   7.329370e-08   2636384
  1.418803e+00   1.180826e-04   1.840293e-03   7.256796e-08   2662220
  1.425180e+00   1.172917e-04   1.842524e-03   7.163055e-08   2689770
  1.431560e+00   1.164345e-04   1.840994e-03   7.093801e-08   2712296
  1.437933e+00   1.157446e-04   1.838431e-03   7.019390e-08   2732618
  1.444312e+00   1.149879e-04   1.843932e-03   6.938888e-08   2765264
  1.450695e+00   1.144157e-04   1.840894e-03   6.880856e-08   2784824
  1.457066e+00   1.136102e-04   1.837138e-03   6.811015e-08   2804162
  1.463445e+00   1.127570e-04   1.844971e-03   6.716006e-08   2840612
  1.469825e+00   1.119296e-04   1.839130e-03   6.645675e-08   2855576
  1.476198e+00   1.111884e-04   1.840533e-03   6.566229e-08   2883458
  1.482571e+00   1.105801e-04   1.838217e-03   6.510461e-08   2904128
  1.488946e+00   1.097814e-04   1.843378e-03   6.437968e-08   2937026
  1.495325e+00   1.092779e-04   1.839218e-03   6.381295e-08   2956976
  1.501703e+00   1.084883e-04   1.841967e-03   6.304638e-08   2986472
  1.508082e+00   1.077432e-04   1.840166e-03   6.238570e-08   3008918
  1.514460e+00   1.070116e-04   1.841773e-03   6.171776e-08   3036752
  1.520836e+00   1.062405e-04   1.839884e-03   6.102920e-08   3058376
  1.527209e+00   1.056610e-04   1.839616e-03   6.040041e-08   3084210
  1.533583e+00   1.050362e-04   1.840948e-03   5.978654e-08   3111848
  1.539960e+00   1.042372e-04   1.841348e-03   5.905717e-08   3138890
  1.546339e+00   1.036103e-04   1.840626e-03   5.847344e-08   3164516
  1.552719e+00   1.029928e-04   1.842638e-03   5.789186e-08   3192656
  1.559097e+00   1.024164e-04   1.840555e-03   5.733816e-08   3215618
  1.565473e+00   1.016941e-04   1.840732e-03   5.675935e-08   3242888
  1.571846e+00   1.008475e-04   1.839114e-03   5.595553e-08   3265448
  1.578224e+00   1.002802e-04   1.843575e-03   5.545629e-08   3300842
  1.584604e+00   9.971240e-05   1.839884e-03   5.497341e-08   3321008
  1.590977e+00   9.895898e-05   1.839336e-03   5.433358e-08   3346406
  1.597352e+00   9.842171e-05   1.841596e-03   5.370994e-08   3377984
  1.603728e+00   9.770731e-05   1.839551e-03   5.327581e-08   3400352
  1.610103e+00   9.710374e-05   1.841321e-03   5.263367e-08   3431450
  1.616483e+00   9.650605e-05   1.841519e-03   5.216716e-08   3458768
  1.622859e+00   9.597038e-05   1.841183e-03   5.169997e-08   3484088
  1.629231e+00   9.519892e-05   1.838425e-03   5.097168e-08   3508218
  1.635610e+00   9.468564e-05   1.843946e-03   5.051679e-08   3545924
  1.641992e+00   9.417246e-05   1.841053e-03   4.998625e-08   3567530
  1.648369e+00   9.345423e-05   1.840183e-03   4.951271e-08   3595040
  1.654744e+00   9.278476e-05   1.840167e-03   4.900074e-08   3621176
  1.661115e+00   9.230663e-05   1.839521e-03   4.857415e-08   3647738
  1.667490e+00   9.163147e-05   1.841438e-03   4.792147e-08   3680480
  1.673870e+00   9.101597e-05   1.842082e-03   4.741907e-08   3709712
  1.680248e+00   9.036746e-05   1.840008e-03   4.700150e-08   3734702
  1.686623e+00   8.977582e-05   1.840362e-03   4.648966e-08   3762776
  1.692996e+00   8.925047e-05   1.839854e-03   4.603587e-08   3790514
  1.699371e+00   8.867800e-05   1.839908e-03   4.561105e-08   3820352
  1.705752e+00   8.824152e-05   1.844068e-03   4.519308e-08   3856016
  1.712131e+00   8.753447e-05   1.839690e-03   4.467238e-08   3876818
  1.718506e+00   8.697689e-05   1.839874e-03   4.421969e-08   3906332
  1.724882e+00   8.641388e-05   1.841963e-03   4.377046e-08   3938216
  1.731260e+00   8.589260e-05   1.840685e-03   4.335419e-08   3966354
  1.737636e+00   8.532832e-05   1.839695e-03   4.291783e-08   3993536
  1.744011e+00   8.468311e-05   1.840344e-03   4.244119e-08   4024034
  1.750392e+00   8.430760e-05   1.843071e-03   4.201665e-08   4060208
  1.756773e+00   8.365436e-05   1.840812e-03   4.164542e-08   4083632
  1.763145e+00   8.306617e-05   1.837811e-03   4.118292e-08   4107062
  1.769521e+00   8.271608e-05   1.842771e-03   4.083791e-08   4148072
  1.775893e+00   8.204309e-05   1.836707e-03   4.046114e-08   4163456
  1.782267e+00   8.155898e-05   1.842476e-03   3.993916e-08   4207994
  1.788652e+00   8.094419e-05   1.843367e-03   3.952103e-08   4239152
  1.795029e+00   8.033778e-05   1.839132e-03   3.912996e-08   4259426
  1.801407e+00   7.988013e-05   1.842524e-03   3.874311e-08   4299488
  1.807788e+00   7.947284e-05   1.840660e-03   3.848454e-08   4323692
  1.814162e+00   7.885962e-05   1.840093e-03   3.804244e-08   4353242
  1.820541e+00   7.851574e-05   1.841694e-03   3.772453e-08   4388792
