# power spectrum of delta
# redshift z=5.974173
# k              Pk             sigma(k)       sigma(Pk)      count
  5.011399e-03   1.731578e-06   7.667927e-04   3.348450e-07   18
  1.037418e-02   4.640727e-05   1.725047e-03   5.350564e-06   128
  1.616528e-02   2.045611e-04   1.646572e-03   1.154548e-05   314
  2.269071e-02   4.891583e-04   1.954354e-03   1.896547e-05   728
  2.897169e-02   9.339720e-04   1.717946e-03   3.136588e-05   1016
  3.518826e-02   1.296164e-03   1.880676e-03   3.201862e-05   1682
  4.169479e-02   1.940914e-03   1.831736e-03   4.077267e-05   2300
  4.790974e-02   2.467550e-03   1.770731e-03   4.634341e-05   2906
  5.429022e-02   3.310563e-03   1.892687e-03   5.446630e-05   4040
  6.068098e-02   4.272846e-03   1.775551e-03   6.440704e-05   4712
  6.698900e-02   5.431631e-03   1.857705e-03   7.008907e-05   6002
  7.346135e-02   6.417819e-03   1.857594e-03   7.639467e-05   7256
  7.977379e-02   7.611798e-03   1.772571e-03   8.613340e-05   8120
  8.609019e-02   8.320663e-03   1.864951e-03   8.346702e-05   9950
  9.253636e-02   9.156353e-03   1.853578e-03   8.470857e-05   11384
  9.885187e-02   9.738470e-03   1.809244e-03   8.765432e-05   12666
  1.052712e-01   1.073490e-02   1.889168e-03   8.620451e-05   15104
  1.117654e-01   1.182605e-02   1.850532e-03   9.291199e-05   16616
  1.180754e-01   1.343580e-02   1.799489e-03   1.007727e-04   18026
  1.244216e-01   1.472577e-02   1.853405e-03   1.009631e-04   20696
  1.308065e-01   1.597742e-02   1.827918e-03   1.074939e-04   22436
  1.371558e-01   1.751119e-02   1.845873e-03   1.114143e-04   24962
  1.435394e-01   1.836918e-02   1.831283e-03   1.100752e-04   27176
  1.499133e-01   1.892778e-02   1.847268e-03   1.100857e-04   29810
  1.562775e-01   1.971187e-02   1.828450e-03   1.111444e-04   32120
  1.626776e-01   2.046533e-02   1.865216e-03   1.091142e-04   35432
  1.690383e-01   2.174568e-02   1.814577e-03   1.123503e-04   37238
  1.754019e-01   2.299340e-02   1.856016e-03   1.136757e-04   41072
  1.817869e-01   2.420913e-02   1.834293e-03   1.173133e-04   43472
  1.881565e-01   2.591586e-02   1.848176e-03   1.199227e-04   47042
  1.945298e-01   2.755054e-02   1.829223e-03   1.252873e-04   49712
  2.008693e-01   2.869348e-02   1.840592e-03   1.250823e-04   53226
  2.072637e-01   2.899437e-02   1.853753e-03   1.209202e-04   57320
  2.136558e-01   3.004132e-02   1.831629e-03   1.230451e-04   60092
  2.200056e-01   3.095985e-02   1.839426e-03   1.228791e-04   63914
  2.263950e-01   3.164961e-02   1.849752e-03   1.207262e-04   68192
  2.327751e-01   3.272210e-02   1.833934e-03   1.223237e-04   71336
  2.391397e-01   3.382348e-02   1.845607e-03   1.228251e-04   75818
  2.455297e-01   3.513781e-02   1.844019e-03   1.249464e-04   79880
  2.518964e-01   3.650319e-02   1.834462e-03   1.259354e-04   83642
  2.582661e-01   3.809425e-02   1.840779e-03   1.283828e-04   88316
  2.646730e-01   3.902305e-02   1.859422e-03   1.282122e-04   93488
  2.710484e-01   3.986746e-02   1.827184e-03   1.288294e-04   96458
  2.773871e-01   4.070034e-02   1.829038e-03   1.292094e-04   101264
  2.837816e-01   4.136466e-02   1.862873e-03   1.259577e-04   107696
  2.901819e-01   4.212719e-02   1.837217e-03   1.268060e-04   111170
  2.965233e-01   4.353921e-02   1.822285e-03   1.287344e-04   115232
  3.028941e-01   4.449043e-02   1.855375e-03   1.270793e-04   122310
  3.093019e-01   4.542240e-02   1.843350e-03   1.276429e-04   126944
  3.156739e-01   4.678289e-02   1.828600e-03   1.294206e-04   131192
  3.220432e-01   4.778949e-02   1.844535e-03   1.295930e-04   137618
  3.284234e-01   4.898931e-02   1.836674e-03   1.296501e-04   142448
  3.347979e-01   4.962759e-02   1.844704e-03   1.286347e-04   148520
  3.411627e-01   5.046941e-02   1.831436e-03   1.296165e-04   153254
  3.475446e-01   5.154886e-02   1.852010e-03   1.288500e-04   160760
  3.539284e-01   5.194358e-02   1.835751e-03   1.274789e-04   165290
  3.603019e-01   5.343276e-02   1.840148e-03   1.288338e-04   171992
  3.666828e-01   5.417436e-02   1.840217e-03   1.291827e-04   177800
  3.730569e-01   5.527619e-02   1.843032e-03   1.289024e-04   184322
  3.794439e-01   5.633303e-02   1.841595e-03   1.295530e-04   190832
  3.858239e-01   5.709111e-02   1.839260e-03   1.294799e-04   196772
  3.921872e-01   5.852545e-02   1.836453e-03   1.301939e-04   202970
  3.985536e-01   5.942104e-02   1.839266e-03   1.302866e-04   210056
  4.049173e-01   6.028379e-02   1.832832e-03   1.300745e-04   216210
  4.112896e-01   6.094256e-02   1.841640e-03   1.286156e-04   224168
  4.176700e-01   6.137555e-02   1.840761e-03   1.284291e-04   230792
  4.240565e-01   6.291053e-02   1.846256e-03   1.293437e-04   238778
  4.304312e-01   6.333477e-02   1.831772e-03   1.277520e-04   243956
  4.367939e-01   6.453525e-02   1.845141e-03   1.283998e-04   252680
  4.431746e-01   6.556371e-02   1.842020e-03   1.288992e-04   260066
  4.495713e-01   6.634016e-02   1.849294e-03   1.280499e-04   268712
  4.559494e-01   6.723672e-02   1.834336e-03   1.285830e-04   274034
  4.623270e-01   6.779887e-02   1.847366e-03   1.273905e-04   283904
  4.687088e-01   6.872544e-02   1.837425e-03   1.279720e-04   290048
  4.750707e-01   6.937270e-02   1.836659e-03   1.277205e-04   297950
  4.814434e-01   7.045548e-02   1.842026e-03   1.277314e-04   306968
  4.878269e-01   7.182452e-02   1.843240e-03   1.282227e-04   315320
  4.942006e-01   7.188857e-02   1.835899e-03   1.268950e-04   322346
  5.005701e-01   7.300853e-02   1.842589e-03   1.266256e-04   331664
  5.069538e-01   7.373019e-02   1.844896e-03   1.262347e-04   340818
  5.133346e-01   7.488715e-02   1.837322e-03   1.271665e-04   348164
  5.197083e-01   7.572806e-02   1.843548e-03   1.270199e-04   357584
  5.260929e-01   7.662189e-02   1.846059e-03   1.263457e-04   367106
  5.324635e-01   7.691197e-02   1.832285e-03   1.255804e-04   373376
  5.388350e-01   7.770671e-02   1.848023e-03   1.248869e-04   385376
  5.452233e-01   7.861161e-02   1.842356e-03   1.248664e-04   393650
  5.516038e-01   7.938807e-02   1.840588e-03   1.251381e-04   402704
  5.579656e-01   7.994422e-02   1.830970e-03   1.246040e-04   409910
  5.643320e-01   8.096855e-02   1.843407e-03   1.245002e-04   422024
  5.707212e-01   8.137408e-02   1.846526e-03   1.240444e-04   432176
  5.771022e-01   8.238230e-02   1.837404e-03   1.241010e-04   440066
  5.834769e-01   8.294746e-02   1.841263e-03   1.237944e-04   450680
  5.898365e-01   8.397602e-02   1.831084e-03   1.240593e-04   457856
  5.962115e-01   8.458971e-02   1.848347e-03   1.232295e-04   472538
  6.026013e-01   8.559668e-02   1.839689e-03   1.233778e-04   480140
  6.089752e-01   8.607415e-02   1.841279e-03   1.230540e-04   490842
  6.153517e-01   8.711406e-02   1.838382e-03   1.232314e-04   500744
  6.217295e-01   8.750820e-02   1.842392e-03   1.225013e-04   511856
  6.281145e-01   8.843497e-02   1.844734e-03   1.221692e-04   523202
  6.344991e-01   8.934256e-02   1.840396e-03   1.228962e-04   532688
  6.408638e-01   8.994627e-02   1.834541e-03   1.222299e-04   541520
  6.472341e-01   9.065948e-02   1.842653e-03   1.221518e-04   555110
  6.536136e-01   9.101927e-02   1.839126e-03   1.205965e-04   564944
  6.599884e-01   9.178136e-02   1.839832e-03   1.213419e-04   576434
  6.663740e-01   9.249340e-02   1.844405e-03   1.208519e-04   588848
  6.727501e-01   9.307961e-02   1.838623e-03   1.206155e-04   597704
  6.791236e-01   9.409781e-02   1.842386e-03   1.210655e-04   610946
  6.855006e-01   9.480838e-02   1.837794e-03   1.202954e-04   620852
  6.918722e-01   9.511887e-02   1.841901e-03   1.201905e-04   633530
  6.982524e-01   9.584247e-02   1.841844e-03   1.194309e-04   645704
  7.046316e-01   9.670460e-02   1.840565e-03   1.189959e-04   656744
  7.110074e-01   9.710197e-02   1.841941e-03   1.191656e-04   669162
  7.173906e-01   9.793368e-02   1.843286e-03   1.182465e-04   681992
  7.237681e-01   9.833560e-02   1.838959e-03   1.186404e-04   692360
  7.301485e-01   9.929203e-02   1.844364e-03   1.181236e-04   707006
  7.365206e-01   9.988303e-02   1.834135e-03   1.179242e-04   714944
  7.428835e-01   1.006446e-01   1.841775e-03   1.177033e-04   730346
  7.492606e-01   1.012644e-01   1.838962e-03   1.177051e-04   742616
  7.556415e-01   1.017814e-01   1.843530e-03   1.173408e-04   756536
  7.620128e-01   1.024953e-01   1.836595e-03   1.168216e-04   766418
  7.683917e-01   1.029323e-01   1.845753e-03   1.163052e-04   783392
  7.747614e-01   1.038885e-01   1.833632e-03   1.168682e-04   790412
  7.811334e-01   1.041502e-01   1.848120e-03   1.156927e-04   810314
  7.875277e-01   1.047217e-01   1.843702e-03   1.156634e-04   821960
  7.938987e-01   1.054845e-01   1.834976e-03   1.158973e-04   831266
  8.002712e-01   1.056560e-01   1.843706e-03   1.150092e-04   848960
  8.066557e-01   1.064017e-01   1.842629e-03   1.148152e-04   861488
  8.130204e-01   1.070247e-01   1.833334e-03   1.151747e-04   871194
  8.193985e-01   1.075213e-01   1.847247e-03   1.139274e-04   891788
  8.257796e-01   1.078773e-01   1.838008e-03   1.138462e-04   900416
  8.321422e-01   1.087384e-01   1.836250e-03   1.138515e-04   914306
  8.385264e-01   1.092782e-01   1.847988e-03   1.133679e-04   933992
  8.449011e-01   1.097630e-01   1.834294e-03   1.135805e-04   940826
  8.512701e-01   1.104564e-01   1.842364e-03   1.129509e-04   960224
  8.576621e-01   1.108265e-01   1.846556e-03   1.127047e-04   976316
  8.640381e-01   1.114407e-01   1.835724e-03   1.123895e-04   985010
  8.704114e-01   1.122216e-01   1.843336e-03   1.123532e-04   1004024
  8.767898e-01   1.125562e-01   1.839706e-03   1.119549e-04   1016288
  8.831639e-01   1.131801e-01   1.840690e-03   1.119316e-04   1032290
  8.895470e-01   1.135448e-01   1.843156e-03   1.111400e-04   1048640
  8.959130e-01   1.140162e-01   1.831919e-03   1.108545e-04   1057250
  9.022937e-01   1.146108e-01   1.849588e-03   1.105110e-04   1083140
  9.086870e-01   1.150893e-01   1.840763e-03   1.104748e-04   1092248
  9.150555e-01   1.155142e-01   1.837510e-03   1.101825e-04   1105914
  9.214310e-01   1.159316e-01   1.841822e-03   1.097628e-04   1124744
  9.278120e-01   1.166427e-01   1.841202e-03   1.093782e-04   1139120
  9.341841e-01   1.169462e-01   1.838536e-03   1.091482e-04   1153490
  9.405650e-01   1.175948e-01   1.844187e-03   1.089451e-04   1172936
  9.469357e-01   1.182590e-01   1.834491e-03   1.094258e-04   1182158
  9.533110e-01   1.186206e-01   1.846126e-03   1.081306e-04   1206392
  9.596894e-01   1.188467e-01   1.835525e-03   1.079632e-04   1215224
  9.660641e-01   1.193674e-01   1.844936e-03   1.075321e-04   1237874
  9.724505e-01   1.198146e-01   1.841050e-03   1.072112e-04   1251800
  9.788233e-01   1.201637e-01   1.838619e-03   1.072027e-04   1265792
  9.851993e-01   1.206174e-01   1.843109e-03   1.067520e-04   1286306
  9.915793e-01   1.210584e-01   1.838809e-03   1.066393e-04   1299764
  9.979438e-01   1.215149e-01   1.836769e-03   1.063006e-04   1314554
  1.004319e+00   1.218296e-01   1.843595e-03   1.057830e-04   1337288
  1.010703e+00   1.226866e-01   1.840912e-03   1.060262e-04   1351304
  1.017077e+00   1.229204e-01   1.841769e-03   1.053352e-04   1369026
  1.023461e+00   1.233120e-01   1.843478e-03   1.049787e-04   1388456
  1.029842e+00   1.238062e-01   1.840406e-03   1.050404e-04   1402700
  1.036211e+00   1.241855e-01   1.837802e-03   1.045945e-04   1418282
  1.042587e+00   1.249294e-01   1.843596e-03   1.044723e-04   1440272
  1.048964e+00   1.249643e-01   1.838705e-03   1.039027e-04   1454114
  1.055341e+00   1.254862e-01   1.842603e-03   1.037963e-04   1475480
  1.061720e+00   1.262941e-01   1.840520e-03   1.037544e-04   1490936
  1.068091e+00   1.261660e-01   1.838519e-03   1.030433e-04   1507826
  1.074472e+00   1.269095e-01   1.844275e-03   1.030840e-04   1530764
  1.080850e+00   1.269755e-01   1.839052e-03   1.026325e-04   1543424
  1.087222e+00   1.274381e-01   1.841688e-03   1.023574e-04   1564946
  1.093594e+00   1.278743e-01   1.835875e-03   1.023835e-04   1578536
  1.099970e+00   1.278929e-01   1.845670e-03   1.012540e-04   1604882
  1.106358e+00   1.282938e-01   1.842454e-03   1.012410e-04   1621304
  1.112736e+00   1.288005e-01   1.839545e-03   1.011498e-04   1637024
  1.119103e+00   1.295167e-01   1.837794e-03   1.009336e-04   1654134
  1.125480e+00   1.296969e-01   1.844256e-03   1.005583e-04   1679168
  1.131864e+00   1.298447e-01   1.841903e-03   1.001153e-04   1695944
  1.138235e+00   1.301709e-01   1.836568e-03   1.000098e-04   1710602
  1.144612e+00   1.304943e-01   1.844777e-03   9.944063e-05   1737056
  1.150994e+00   1.310624e-01   1.840390e-03   9.951432e-05   1752602
  1.157370e+00   1.312711e-01   1.839227e-03   9.909661e-05   1772024
  1.163752e+00   1.316536e-01   1.844090e-03   9.866695e-05   1795364
  1.170126e+00   1.319203e-01   1.836467e-03   9.866993e-05   1807634
  1.176490e+00   1.321005e-01   1.836183e-03   9.815445e-05   1827608
  1.182859e+00   1.327975e-01   1.840789e-03   9.847225e-05   1850984
  1.189240e+00   1.329965e-01   1.844107e-03   9.771501e-05   1874618
  1.195619e+00   1.333474e-01   1.838445e-03   9.759066e-05   1889504
  1.202001e+00   1.335545e-01   1.845373e-03   9.712523e-05   1916870
  1.208383e+00   1.335883e-01   1.838254e-03   9.681143e-05   1929728
  1.214760e+00   1.342923e-01   1.843674e-03   9.634613e-05   1955408
  1.221131e+00   1.342934e-01   1.834427e-03   9.644841e-05   1966842
  1.227503e+00   1.345357e-01   1.843005e-03   9.572009e-05   1996640
  1.233886e+00   1.347525e-01   1.842690e-03   9.535192e-05   2016392
  1.240265e+00   1.352782e-01   1.839730e-03   9.545096e-05   2034722
  1.246641e+00   1.355796e-01   1.840813e-03   9.530083e-05   2056460
  1.253014e+00   1.358005e-01   1.838931e-03   9.490020e-05   2075186
  1.259388e+00   1.358397e-01   1.840566e-03   9.450885e-05   2099096
  1.265761e+00   1.361922e-01   1.837910e-03   9.425995e-05   2116832
  1.272138e+00   1.366960e-01   1.844119e-03   9.403425e-05   2145146
  1.278526e+00   1.366875e-01   1.844128e-03   9.370759e-05   2166776
  1.284904e+00   1.370462e-01   1.838822e-03   9.343013e-05   2181848
  1.291273e+00   1.375903e-01   1.838785e-03   9.343656e-05   2203766
  1.297646e+00   1.376571e-01   1.840619e-03   9.303894e-05   2227664
  1.304025e+00   1.375434e-01   1.842381e-03   9.229282e-05   2252138
  1.310403e+00   1.379369e-01   1.839825e-03   9.245844e-05   2271152
  1.316777e+00   1.382525e-01   1.840536e-03   9.209223e-05   2293256
  1.323154e+00   1.383399e-01   1.842085e-03   9.162639e-05   2318130
  1.329536e+00   1.387571e-01   1.841956e-03   9.144313e-05   2340824
  1.335910e+00   1.390837e-01   1.838342e-03   9.121860e-05   2357990
  1.342292e+00   1.390968e-01   1.846396e-03   9.082047e-05   2391176
  1.348671e+00   1.393482e-01   1.837209e-03   9.085822e-05   2401808
  1.355040e+00   1.398314e-01   1.840258e-03   9.037606e-05   2428442
  1.361418e+00   1.399911e-01   1.842645e-03   9.008546e-05   2454752
  1.367798e+00   1.400228e-01   1.841270e-03   8.983740e-05   2475872
  1.374172e+00   1.402779e-01   1.838763e-03   8.963967e-05   2495822
  1.380543e+00   1.405340e-01   1.839940e-03   8.948984e-05   2520248
  1.386922e+00   1.404482e-01   1.844043e-03   8.885443e-05   2549186
  1.393299e+00   1.409163e-01   1.837661e-03   8.882490e-05   2564768
  1.399672e+00   1.410729e-01   1.841284e-03   8.852067e-05   2592968
  1.406054e+00   1.411755e-01   1.843378e-03   8.815222e-05   2619818
  1.412431e+00   1.414699e-01   1.838027e-03   8.810498e-05   2636384
  1.418803e+00   1.416261e-01   1.840293e-03   8.772723e-05   2662220
  1.425180e+00   1.418886e-01   1.842524e-03   8.757648e-05   2689770
  1.431560e+00   1.420789e-01   1.840994e-03   8.744769e-05   2712296
  1.437933e+00   1.421060e-01   1.838431e-03   8.705287e-05   2732618
  1.444312e+00   1.422304e-01   1.843932e-03   8.645805e-05   2765264
  1.450695e+00   1.423508e-01   1.840894e-03   8.638724e-05   2784824
  1.457066e+00   1.426530e-01   1.837138e-03   8.633797e-05   2804162
  1.463445e+00   1.426959e-01   1.844971e-03   8.574299e-05   2840612
  1.469825e+00   1.429347e-01   1.839130e-03   8.586333e-05   2855576
  1.476198e+00   1.431186e-01   1.840533e-03   8.538499e-05   2883458
  1.482571e+00   1.431801e-01   1.838217e-03   8.522223e-05   2904128
  1.488946e+00   1.433286e-01   1.843378e-03   8.471187e-05   2937026
  1.495325e+00   1.435015e-01   1.839218e-03   8.460477e-05   2956976
  1.501703e+00   1.436812e-01   1.841967e-03   8.436617e-05   2986472
  1.508082e+00   1.439093e-01   1.840166e-03   8.405716e-05   3008918
  1.514460e+00   1.441080e-01   1.841773e-03   8.396234e-05   3036752
  1.520836e+00   1.439544e-01   1.839884e-03   8.354907e-05   3058376
  1.527209e+00   1.441882e-01   1.839616e-03   8.319197e-05   3084210
  1.533583e+00   1.443432e-01   1.840948e-03   8.313659e-05   3111848
  1.539960e+00   1.444508e-01   1.841348e-03   8.280473e-05   3138890
  1.546339e+00   1.447534e-01   1.840626e-03   8.263586e-05   3164516
  1.552719e+00   1.446670e-01   1.842638e-03   8.216872e-05   3192656
  1.559097e+00   1.449487e-01   1.840555e-03   8.221673e-05   3215618
  1.565473e+00   1.450040e-01   1.840732e-03   8.183244e-05   3242888
  1.571846e+00   1.450213e-01   1.839114e-03   8.160791e-05   3265448
  1.578224e+00   1.452006e-01   1.843575e-03   8.133042e-05   3300842
  1.584604e+00   1.453532e-01   1.839884e-03   8.120109e-05   3321008
  1.590977e+00   1.452720e-01   1.839336e-03   8.081554e-05   3346406
  1.597352e+00   1.454680e-01   1.841596e-03   8.066650e-05   3377984
  1.603728e+00   1.453828e-01   1.839551e-03   8.028103e-05   3400352
  1.610103e+00   1.456852e-01   1.841321e-03   8.007043e-05   3431450
  1.616483e+00   1.456607e-01   1.841519e-03   7.976517e-05   3458768
  1.622859e+00   1.458932e-01   1.841183e-03   7.964927e-05   3484088
  1.629231e+00   1.457963e-01   1.838425e-03   7.929645e-05   3508218
  1.635610e+00   1.458623e-01   1.843946e-03   7.893692e-05   3545924
  1.641992e+00   1.460358e-01   1.841053e-03   7.884396e-05   3567530
  1.648369e+00   1.462754e-01   1.840183e-03   7.865486e-05   3595040
  1.654744e+00   1.463395e-01   1.840167e-03   7.843628e-05   3621176
  1.661115e+00   1.464060e-01   1.839521e-03   7.816428e-05   3647738
  1.667490e+00   1.463678e-01   1.841438e-03   7.791625e-05   3680480
  1.673870e+00   1.464160e-01   1.842082e-03   7.769899e-05   3709712
  1.680248e+00   1.465908e-01   1.840008e-03   7.750541e-05   3734702
  1.686623e+00   1.468701e-01   1.840362e-03   7.736806e-05   3762776
  1.692996e+00   1.469261e-01   1.839854e-03   7.716456e-05   3790514
  1.699371e+00   1.467011e-01   1.839908e-03   7.676783e-05   3820352
  1.705752e+00   1.464873e-01   1.844068e-03   7.621218e-05   3856016
  1.712131e+00   1.467459e-01   1.839690e-03   7.622533e-05   3876818
  1.718506e+00   1.468788e-01   1.839874e-03   7.609428e-05   3906332
  1.724882e+00   1.469763e-01   1.841963e-03   7.589205e-05   3938216
  1.731260e+00   1.469211e-01   1.840685e-03   7.548207e-05   3966354
  1.737636e+00   1.468322e-01   1.839695e-03   7.525859e-05   3993536
  1.744011e+00   1.468737e-01   1.840344e-03   7.499448e-05   4024034
  1.750392e+00   1.471683e-01   1.843071e-03   7.491419e-05   4060208
  1.756773e+00   1.470850e-01   1.840812e-03   7.461176e-05   4083632
  1.763145e+00   1.471147e-01   1.837811e-03   7.454323e-05   4107062
  1.769521e+00   1.469431e-01   1.842771e-03   7.410436e-05   4148072
  1.775893e+00   1.471960e-01   1.836707e-03   7.396395e-05   4163456
  1.782267e+00   1.471874e-01   1.842476e-03   7.376214e-05   4207994
  1.788652e+00   1.471340e-01   1.843367e-03   7.335996e-05   4239152
  1.795029e+00   1.471423e-01   1.839132e-03   7.326645e-05   4259426
  1.801407e+00   1.474234e-01   1.842524e-03   7.310906e-05   4299488
  1.807788e+00   1.473407e-01   1.840660e-03   7.288449e-05   4323692
  1.814162e+00   1.473544e-01   1.840093e-03   7.263184e-05   4353242
  1.820541e+00   1.472611e-01   1.841694e-03   7.229625e-05   4388792
