# background statistics
# cycle   tau/boxsize    a             conformal H/H0  phi(k=0)       T00(k=0)
      0   1.442543e+00   9.990010e-04   2.010497e+01   0.000000e+00   3.120461e-01
      1   1.485147e+00   1.039270e-03   1.962464e+01   3.858721e-11   3.120461e-01
      2   1.528793e+00   1.081165e-03   1.915833e+01   7.370863e-11   3.120461e-01
      3   1.573502e+00   1.124751e-03   1.870553e+01   1.063087e-10   3.120461e-01
      4   1.619294e+00   1.170098e-03   1.826574e+01   1.366557e-10   3.120461e-01
      5   1.666187e+00   1.217276e-03   1.783850e+01   1.649789e-10   3.120461e-01
      6   1.714204e+00   1.266360e-03   1.742336e+01   1.914843e-10   3.120461e-01
      7   1.763365e+00   1.317425e-03   1.701989e+01   2.163587e-10   3.120461e-01
      8   1.813692e+00   1.370553e-03   1.662768e+01   2.397741e-10   3.120461e-01
      9   1.865205e+00   1.425827e-03   1.624633e+01   2.618894e-10   3.120461e-01
     10   1.917928e+00   1.483332e-03   1.587547e+01   2.828518e-10   3.120461e-01
     11   1.971882e+00   1.543161e-03   1.551472e+01   3.027985e-10   3.120461e-01
     12   2.027091e+00   1.605406e-03   1.516375e+01   3.218570e-10   3.120461e-01
     13   2.083578e+00   1.670165e-03   1.482221e+01   3.401465e-10   3.120461e-01
     14   2.141366e+00   1.737540e-03   1.448979e+01   3.577780e-10   3.120461e-01
     15   2.200480e+00   1.807636e-03   1.416618e+01   3.748554e-10   3.120461e-01
     16   2.260944e+00   1.880563e-03   1.385109e+01   3.914758e-10   3.120461e-01
     17   2.322784e+00   1.956436e-03   1.354423e+01   4.077299e-10   3.120461e-01
     18   2.386025e+00   2.035374e-03   1.324533e+01   4.237031e-10   3.120461e-01
     19   2.450693e+00   2.117501e-03   1.295413e+01   4.394752e-10   3.120461e-01
     20   2.516815e+00   2.202945e-03   1.267038e+01   4.551214e-10   3.120461e-01
     21   2.584418e+00   2.291840e-03   1.239385e+01   4.707126e-10   3.120461e-01
     22   2.653529e+00   2.384326e-03   1.212429e+01   4.863155e-10   3.120461e-01
     23   2.724176e+00   2.480548e-03   1.186149e+01   5.019935e-10   3.120461e-01
     24   2.796389e+00   2.580657e-03   1.160524e+01   5.178067e-10   3.120461e-01
     25   2.870196e+00   2.684810e-03   1.135534e+01   5.338122e-10   3.120461e-01
     26   2.945627e+00   2.793171e-03   1.111158e+01   5.500646e-10   3.120461e-01
     27   3.022713e+00   2.905909e-03   1.087377e+01   5.666163e-10   3.120461e-01
     28   3.101486e+00   3.023201e-03   1.064175e+01   5.835176e-10   3.120461e-01
     29   3.181975e+00   3.145231e-03   1.041532e+01   6.008172e-10   3.120461e-01
     30   3.264215e+00   3.272191e-03   1.019433e+01   6.185621e-10   3.120461e-01
     31   3.348237e+00   3.404279e-03   9.978614e+00   6.367983e-10   3.120461e-01
     32   3.434075e+00   3.541704e-03   9.768016e+00   6.555706e-10   3.120461e-01
     33   3.521765e+00   3.684680e-03   9.562386e+00   6.749232e-10   3.120461e-01
     34   3.611339e+00   3.833433e-03   9.361581e+00   6.948993e-10   3.120461e-01
     35   3.702836e+00   3.988194e-03   9.165462e+00   7.155422e-10   3.120461e-01
     36   3.796290e+00   4.149208e-03   8.973896e+00   7.368945e-10   3.120461e-01
     37   3.891739e+00   4.316726e-03   8.786755e+00   7.589989e-10   3.120461e-01
     38   3.989221e+00   4.491012e-03   8.603914e+00   7.818981e-10   3.120461e-01
     39   4.088774e+00   4.672338e-03   8.425254e+00   8.056352e-10   3.120461e-01
     40   4.190439e+00   4.860990e-03   8.250660e+00   8.302536e-10   3.120461e-01
     41   4.294255e+00   5.057263e-03   8.080021e+00   8.557970e-10   3.120461e-01
     42   4.400263e+00   5.261466e-03   7.913229e+00   8.823102e-10   3.120461e-01
     43   4.508506e+00   5.473918e-03   7.750181e+00   9.098382e-10   3.120461e-01
     44   4.619026e+00   5.694952e-03   7.590777e+00   9.384275e-10   3.120461e-01
     45   4.731867e+00   5.924917e-03   7.434921e+00   9.681253e-10   3.120461e-01
     46   4.847073e+00   6.164171e-03   7.282519e+00   9.989800e-10   3.120461e-01
     47   4.964690e+00   6.413092e-03   7.133481e+00   1.031041e-09   3.120461e-01
     48   5.084765e+00   6.672068e-03   6.987721e+00   1.064360e-09   3.120461e-01
     49   5.207344e+00   6.941507e-03   6.845153e+00   1.098989e-09   3.120461e-01
     50   5.332477e+00   7.221832e-03   6.705697e+00   1.134983e-09   3.120461e-01
     51   5.460211e+00   7.513481e-03   6.569273e+00   1.172397e-09   3.120461e-01
     52   5.590599e+00   7.816912e-03   6.435805e+00   1.211289e-09   3.120461e-01
     53   5.723690e+00   8.132602e-03   6.305220e+00   1.251719e-09   3.120460e-01
     54   5.859538e+00   8.461046e-03   6.177446e+00   1.293748e-09   3.120460e-01
     55   5.998195e+00   8.802759e-03   6.052414e+00   1.337441e-09   3.120460e-01
     56   6.139717e+00   9.158276e-03   5.930056e+00   1.382864e-09   3.120460e-01
     57   6.284159e+00   9.528157e-03   5.810307e+00   1.430086e-09   3.120460e-01
     58   6.431578e+00   9.912981e-03   5.693105e+00   1.479177e-09   3.120460e-01
     59   6.582032e+00   1.031335e-02   5.578388e+00   1.530213e-09   3.120460e-01
     60   6.735580e+00   1.072990e-02   5.466097e+00   1.583268e-09   3.120460e-01
     61   6.892283e+00   1.116327e-02   5.356174e+00   1.638424e-09   3.120460e-01
     62   7.052201e+00   1.161415e-02   5.248564e+00   1.695762e-09   3.120460e-01
     63   7.215398e+00   1.208325e-02   5.143212e+00   1.755369e-09   3.120460e-01
     64   7.381938e+00   1.257130e-02   5.040065e+00   1.817334e-09   3.120460e-01
     65   7.551886e+00   1.307906e-02   4.939073e+00   1.881749e-09   3.120460e-01
     66   7.725309e+00   1.360734e-02   4.840185e+00   1.948711e-09   3.120460e-01
     67   7.902275e+00   1.415696e-02   4.743353e+00   2.018319e-09   3.120460e-01
     68   8.082854e+00   1.472879e-02   4.648531e+00   2.090678e-09   3.120460e-01
     69   8.267117e+00   1.532372e-02   4.555672e+00   2.165896e-09   3.120460e-01
     70   8.455135e+00   1.594268e-02   4.464732e+00   2.244084e-09   3.120460e-01
     71   8.646983e+00   1.658665e-02   4.375668e+00   2.325361e-09   3.120460e-01
     72   8.842736e+00   1.725664e-02   4.288438e+00   2.409847e-09   3.120460e-01
     73   9.042471e+00   1.795369e-02   4.203001e+00   2.497669e-09   3.120460e-01
     74   9.246266e+00   1.867890e-02   4.119318e+00   2.588958e-09   3.120460e-01
     75   9.454201e+00   1.943341e-02   4.037348e+00   2.683850e-09   3.120460e-01
     76   9.666357e+00   2.021841e-02   3.957055e+00   2.782488e-09   3.120460e-01
     77   9.882819e+00   2.103512e-02   3.878402e+00   2.885019e-09   3.120460e-01
     78   1.010367e+01   2.188482e-02   3.801353e+00   2.991596e-09   3.120460e-01
     79   1.032900e+01   2.276885e-02   3.725873e+00   3.102381e-09   3.120460e-01
     80   1.055889e+01   2.368860e-02   3.651929e+00   3.217538e-09   3.120460e-01
     81   1.079344e+01   2.464550e-02   3.579486e+00   3.337240e-09   3.120460e-01
     82   1.103273e+01   2.564107e-02   3.508512e+00   3.461668e-09   3.120460e-01
     83   1.127687e+01   2.667685e-02   3.438977e+00   3.591009e-09   3.120460e-01
     84   1.152594e+01   2.775448e-02   3.370849e+00   3.725457e-09   3.120460e-01
     85   1.178004e+01   2.887565e-02   3.304098e+00   3.865214e-09   3.120460e-01
     86   1.203928e+01   3.004211e-02   3.238695e+00   4.010492e-09   3.120460e-01
     87   1.230375e+01   3.125569e-02   3.174612e+00   4.161509e-09   3.120460e-01
     88   1.257357e+01   3.251831e-02   3.111821e+00   4.318495e-09   3.120460e-01
     89   1.284882e+01   3.383194e-02   3.050294e+00   4.481685e-09   3.120460e-01
     90   1.312963e+01   3.519863e-02   2.990005e+00   4.651329e-09   3.120460e-01
     91   1.341610e+01   3.662055e-02   2.930929e+00   4.827682e-09   3.120460e-01
     92   1.370835e+01   3.809991e-02   2.873039e+00   5.011012e-09   3.120459e-01
     93   1.400648e+01   3.963903e-02   2.816312e+00   5.201599e-09   3.120459e-01
     94   1.431062e+01   4.124034e-02   2.760723e+00   5.399733e-09   3.120459e-01
     95   1.462088e+01   4.290634e-02   2.706250e+00   5.605715e-09   3.120459e-01
     96   1.493739e+01   4.463965e-02   2.652868e+00   5.819861e-09   3.120459e-01
     97   1.526027e+01   4.644298e-02   2.600556e+00   6.042499e-09   3.120459e-01
     98   1.558964e+01   4.831918e-02   2.549291e+00   6.273969e-09   3.120459e-01
     99   1.592564e+01   5.027117e-02   2.499053e+00   6.514628e-09   3.120459e-01
    100   1.626839e+01   5.230203e-02   2.449821e+00   6.764846e-09   3.120459e-01
    101   1.661802e+01   5.441493e-02   2.401575e+00   7.025009e-09   3.120459e-01
    102   1.697469e+01   5.661320e-02   2.354294e+00   7.295519e-09   3.120459e-01
    103   1.733851e+01   5.890029e-02   2.307960e+00   7.576794e-09   3.120459e-01
    104   1.770964e+01   6.127978e-02   2.262554e+00   7.869267e-09   3.120459e-01
    105   1.808822e+01   6.375540e-02   2.218056e+00   8.173390e-09   3.120459e-01
    106   1.847439e+01   6.633105e-02   2.174451e+00   8.489630e-09   3.120459e-01
    107   1.886830e+01   6.901076e-02   2.131719e+00   8.818471e-09   3.120458e-01
    108   1.927011e+01   7.179874e-02   2.089845e+00   9.160411e-09   3.120458e-01
    109   1.967998e+01   7.469937e-02   2.048811e+00   9.515980e-09   3.120458e-01
    110   2.009805e+01   7.771719e-02   2.008602e+00   9.885724e-09   3.120458e-01
    111   2.052449e+01   8.085695e-02   1.969202e+00   1.027021e-08   3.120458e-01
    112   2.095946e+01   8.412357e-02   1.930595e+00   1.067005e-08   3.120458e-01
    113   2.140313e+01   8.752219e-02   1.892769e+00   1.108585e-08   3.120458e-01
    114   2.185567e+01   9.105813e-02   1.855707e+00   1.151824e-08   3.120458e-01
    115   2.231725e+01   9.473695e-02   1.819396e+00   1.196794e-08   3.120458e-01
    116   2.278804e+01   9.856443e-02   1.783824e+00   1.243562e-08   3.120457e-01
    117   2.326821e+01   1.025466e-01   1.748977e+00   1.292198e-08   3.120457e-01
    118   2.375796e+01   1.066896e-01   1.714843e+00   1.342778e-08   3.120457e-01
    119   2.425745e+01   1.110002e-01   1.681409e+00   1.395378e-08   3.120457e-01
    120   2.476687e+01   1.154849e-01   1.648666e+00   1.450076e-08   3.120457e-01
    121   2.528641e+01   1.201508e-01   1.616601e+00   1.506959e-08   3.120457e-01
    122   2.581626e+01   1.250054e-01   1.585205e+00   1.566114e-08   3.120457e-01
    123   2.635660e+01   1.300562e-01   1.554468e+00   1.627637e-08   3.120456e-01
    124   2.690762e+01   1.353111e-01   1.524381e+00   1.691617e-08   3.120456e-01
    125   2.746952e+01   1.407785e-01   1.494936e+00   1.758152e-08   3.120456e-01
    126   2.804249e+01   1.464669e-01   1.466123e+00   1.827337e-08   3.120456e-01
    127   2.862672e+01   1.523853e-01   1.437938e+00   1.899269e-08   3.120456e-01
    128   2.922240e+01   1.585431e-01   1.410371e+00   1.974056e-08   3.120455e-01
    129   2.982972e+01   1.649498e-01   1.383419e+00   2.051801e-08   3.120455e-01
    130   3.044887e+01   1.716157e-01   1.357076e+00   2.132611e-08   3.120455e-01
    131   3.108005e+01   1.785513e-01   1.331338e+00   2.216598e-08   3.120455e-01
    132   3.172342e+01   1.857674e-01   1.306201e+00   2.303867e-08   3.120455e-01
    133   3.237918e+01   1.932756e-01   1.281664e+00   2.394538e-08   3.120454e-01
    134   3.304749e+01   2.010876e-01   1.257725e+00   2.488720e-08   3.120454e-01
    135   3.372852e+01   2.092159e-01   1.234385e+00   2.586526e-08   3.120454e-01
    136   3.442243e+01   2.176734e-01   1.211643e+00   2.688091e-08   3.120454e-01
    137   3.512936e+01   2.264734e-01   1.189503e+00   2.793531e-08   3.120453e-01
    138   3.584945e+01   2.356299e-01   1.167967e+00   2.902986e-08   3.120453e-01
    139   3.658282e+01   2.451576e-01   1.147042e+00   3.016585e-08   3.120453e-01
    140   3.732957e+01   2.550716e-01   1.126734e+00   3.134458e-08   3.120452e-01
    141   3.807957e+01   2.652478e-01   1.107308e+00   3.254406e-08   3.120452e-01
    142   3.882957e+01   2.756469e-01   1.088816e+00   3.375777e-08   3.120452e-01
    143   3.957957e+01   2.862727e-01   1.071224e+00   3.498636e-08   3.120451e-01
    144   4.032957e+01   2.971296e-01   1.054499e+00   3.623074e-08   3.120451e-01
    145   4.107957e+01   3.082221e-01   1.038614e+00   3.749147e-08   3.120450e-01
    146   4.182957e+01   3.195555e-01   1.023543e+00   3.876918e-08   3.120450e-01
    147   4.257957e+01   3.311355e-01   1.009263e+00   4.006435e-08   3.120450e-01
    148   4.332957e+01   3.429681e-01   9.957563e-01   4.137720e-08   3.120449e-01
    149   4.407957e+01   3.550603e-01   9.830047e-01   4.270743e-08   3.120449e-01
    150   4.482957e+01   3.674194e-01   9.709941e-01   4.405483e-08   3.120448e-01
    151   4.557957e+01   3.800538e-01   9.597124e-01   4.541957e-08   3.120448e-01
    152   4.632957e+01   3.929722e-01   9.491495e-01   4.680092e-08   3.120448e-01
    153   4.707957e+01   4.061845e-01   9.392979e-01   4.819832e-08   3.120447e-01
    154   4.782957e+01   4.197014e-01   9.301518e-01   4.961092e-08   3.120447e-01
    155   4.857957e+01   4.335345e-01   9.217077e-01   5.103792e-08   3.120446e-01
    156   4.932957e+01   4.476966e-01   9.139642e-01   5.247762e-08   3.120446e-01
    157   5.007957e+01   4.622017e-01   9.069218e-01   5.392652e-08   3.120445e-01
    158   5.082957e+01   4.770649e-01   9.005830e-01   5.538174e-08   3.120445e-01
    159   5.157957e+01   4.923028e-01   8.949524e-01   5.683815e-08   3.120444e-01
    160   5.232957e+01   5.079337e-01   8.900368e-01   5.829129e-08   3.120444e-01
    161   5.307957e+01   5.239772e-01   8.858451e-01   5.973856e-08   3.120443e-01
    162   5.382957e+01   5.404551e-01   8.823884e-01   6.117742e-08   3.120443e-01
    163   5.457957e+01   5.573910e-01   8.796799e-01   6.260468e-08   3.120443e-01
    164   5.532957e+01   5.748107e-01   8.777356e-01   6.401498e-08   3.120442e-01
    165   5.607957e+01   5.927425e-01   8.765738e-01   6.540302e-08   3.120442e-01
    166   5.682957e+01   6.112174e-01   8.762155e-01   6.676167e-08   3.120441e-01
    167   5.757957e+01   6.302693e-01   8.766849e-01   6.808129e-08   3.120441e-01
    168   5.832957e+01   6.499355e-01   8.780089e-01   6.935702e-08   3.120440e-01
    169   5.907957e+01   6.702567e-01   8.802182e-01   7.058199e-08   3.120440e-01
    170   5.982957e+01   6.912778e-01   8.833470e-01   7.175130e-08   3.120439e-01
    171   6.057957e+01   7.130482e-01   8.874334e-01   7.285885e-08   3.120439e-01
    172   6.132957e+01   7.356223e-01   8.925204e-01   7.389962e-08   3.120439e-01
    173   6.207957e+01   7.590601e-01   8.986554e-01   7.486627e-08   3.120438e-01
    174   6.282957e+01   7.834279e-01   9.058917e-01   7.575189e-08   3.120438e-01
    175   6.357957e+01   8.087993e-01   9.142885e-01   7.654842e-08   3.120437e-01
    176   6.432957e+01   8.352557e-01   9.239120e-01   7.724951e-08   3.120437e-01
    177   6.507957e+01   8.628877e-01   9.348360e-01   7.784652e-08   3.120437e-01
    178   6.582957e+01   8.917964e-01   9.471431e-01   7.833295e-08   3.120436e-01
    179   6.657957e+01   9.220945e-01   9.609258e-01   7.870091e-08   3.120436e-01
    180   6.732957e+01   9.539084e-01   9.762882e-01   7.894411e-08   3.120436e-01
    181   6.807957e+01   9.873801e-01   9.933472e-01   7.905615e-08   3.120436e-01
    182   6.882957e+01   1.022669e+00   1.012235e+00   7.902953e-08   3.120436e-01
    183   6.957957e+01   1.059957e+00   1.033100e+00   7.885807e-08   3.120435e-01
    184   7.032957e+01   1.099448e+00   1.056113e+00   7.853586e-08   3.120435e-01
    185   7.107957e+01   1.141376e+00   1.081467e+00   7.805605e-08   3.120435e-01
    186   7.182957e+01   1.186008e+00   1.109382e+00   7.741317e-08   3.120435e-01
    187   7.257957e+01   1.233651e+00   1.140114e+00   7.660085e-08   3.120435e-01
    188   7.332957e+01   1.284658e+00   1.173954e+00   7.561567e-08   3.120435e-01
    189   7.405920e+01   1.337899e+00   1.210183e+00   7.448929e-08   3.120435e-01
    190   7.476698e+01   1.393374e+00   1.248790e+00   7.323622e-08   3.120436e-01
    191   7.545289e+01   1.451178e+00   1.289827e+00   7.187024e-08   3.120436e-01
    192   7.611697e+01   1.511406e+00   1.333348e+00   7.040570e-08   3.120436e-01
    193   7.675937e+01   1.574158e+00   1.379410e+00   6.885658e-08   3.120436e-01
    194   7.738033e+01   1.639541e+00   1.428075e+00   6.723664e-08   3.120437e-01
    195   7.798012e+01   1.707661e+00   1.479406e+00   6.555845e-08   3.120437e-01
    196   7.855910e+01   1.778632e+00   1.533475e+00   6.383431e-08   3.120438e-01
    197   7.911767e+01   1.852574e+00   1.590355e+00   6.207577e-08   3.120438e-01
    198   7.965626e+01   1.929608e+00   1.650126e+00   6.029349e-08   3.120438e-01
    199   8.017534e+01   2.009863e+00   1.712873e+00   5.849714e-08   3.120439e-01
    200   8.067541e+01   2.093473e+00   1.778685e+00   5.669562e-08   3.120439e-01
    201   8.115697e+01   2.180575e+00   1.847659e+00   5.489696e-08   3.120440e-01
    202   8.162056e+01   2.271317e+00   1.919896e+00   5.310824e-08   3.120440e-01
    203   8.206670e+01   2.365848e+00   1.995505e+00   5.133578e-08   3.120441e-01
    204   8.249594e+01   2.464325e+00   2.074598e+00   4.958499e-08   3.120441e-01
    205   8.290882e+01   2.566914e+00   2.157298e+00   4.786061e-08   3.120442e-01
    206   8.330586e+01   2.673783e+00   2.243731e+00   4.616661e-08   3.120442e-01
    207   8.368762e+01   2.785112e+00   2.334030e+00   4.450640e-08   3.120443e-01
    208   8.405460e+01   2.901086e+00   2.428339e+00   4.288270e-08   3.120443e-01
    209   8.440733e+01   3.021898e+00   2.526804e+00   4.129780e-08   3.120444e-01
    210   8.474631e+01   3.147748e+00   2.629582e+00   3.975346e-08   3.120444e-01
    211   8.507205e+01   3.278847e+00   2.736836e+00   3.825101e-08   3.120445e-01
    212   8.538502e+01   3.415413e+00   2.848739e+00   3.679143e-08   3.120445e-01
    213   8.568570e+01   3.557673e+00   2.965471e+00   3.537532e-08   3.120446e-01
    214   8.597454e+01   3.705864e+00   3.087219e+00   3.400301e-08   3.120446e-01
    215   8.625199e+01   3.860234e+00   3.214181e+00   3.267456e-08   3.120447e-01
    216   8.651848e+01   4.021039e+00   3.346563e+00   3.138982e-08   3.120447e-01
    217   8.677443e+01   4.188547e+00   3.484581e+00   3.014843e-08   3.120447e-01
    218   8.702024e+01   4.363037e+00   3.628462e+00   2.894990e-08   3.120448e-01
    219   8.725631e+01   4.544800e+00   3.778439e+00   2.779357e-08   3.120448e-01
    220   8.748300e+01   4.734139e+00   3.934760e+00   2.667869e-08   3.120449e-01
    221   8.770069e+01   4.931369e+00   4.097681e+00   2.560442e-08   3.120449e-01
    222   8.790972e+01   5.136819e+00   4.267471e+00   2.456982e-08   3.120450e-01
    223   8.811044e+01   5.350832e+00   4.444410e+00   2.357393e-08   3.120450e-01
    224   8.830316e+01   5.573763e+00   4.628789e+00   2.261570e-08   3.120450e-01
    225   8.848821e+01   5.805985e+00   4.820914e+00   2.169410e-08   3.120451e-01
    226   8.866588e+01   6.047884e+00   5.021102e+00   2.080802e-08   3.120451e-01
    227   8.883647e+01   6.299863e+00   5.229685e+00   1.995639e-08   3.120451e-01
    228   8.900026e+01   6.562343e+00   5.447008e+00   1.913810e-08   3.120452e-01
    229   8.915751e+01   6.835761e+00   5.673431e+00   1.835206e-08   3.120452e-01
    230   8.930849e+01   7.120572e+00   5.909331e+00   1.759718e-08   3.120452e-01
    231   8.945344e+01   7.417251e+00   6.155098e+00   1.687237e-08   3.120453e-01
